Database of Origin,University of Winnipeg Spectrophotometer Facility
Sample Description,9.2. Magnetites: Maya spectra (PSF)
Date Added,2016-07-15 22:02:37.897796

Data ID,MAY_MAG_06          
Sample ID,MAG108
Mineral Name,Magnetite
Grain Size,<45 
Viewing Geometry,30 / 0
Resolution,0.42-0.48 
Material Class,Magnetite

Wavelength
198.73,0.0491
199.22,0.0481
199.7,0.0484
200.18,0.0489
200.66,0.047
201.14,0.0476
201.63,0.0486
202.11,0.0458
202.59,0.0457
203.07,0.0472
203.55,0.047
204.03,0.0461
204.52,0.0457
205.0,0.0482
205.48,0.0482
205.96,0.0469
206.44,0.0485
206.92,0.0471
207.41,0.0463
207.89,0.0482
208.37,0.0479
208.85,0.0465
209.33,0.0477
209.81,0.0474
210.29,0.0478
210.77,0.0473
211.26,0.0463
211.74,0.0466
212.22,0.0495
212.7,0.0489
213.18,0.0479
213.66,0.0479
214.14,0.0465
214.62,0.047
215.1,0.0447
215.59,0.047
216.07,0.0463
216.55,0.0484
217.03,0.0471
217.51,0.0469
217.99,0.0478
218.47,0.046
218.95,0.0467
219.43,0.0454
219.91,0.0466
220.39,0.0466
220.87,0.0467
221.35,0.0474
221.83,0.0474
222.32,0.0458
222.8,0.0459
223.28,0.0431
223.76,0.0465
224.24,0.0469
224.72,0.0445
225.2,0.0451
225.68,0.0464
226.16,0.0488
226.64,0.0475
227.12,0.0461
227.6,0.0469
228.08,0.0467
228.56,0.0463
229.04,0.0429
229.52,0.0467
230.0,0.0468
230.48,0.0448
230.96,0.0469
231.44,0.0461
231.92,0.0492
232.4,0.0467
232.88,0.0466
233.36,0.046
233.84,0.045
234.32,0.0465
234.8,0.0457
235.28,0.0465
235.76,0.0477
236.24,0.0452
236.72,0.0477
237.2,0.0462
237.68,0.0475
238.16,0.0468
238.64,0.0482
239.11,0.0457
239.59,0.0473
240.07,0.0472
240.55,0.048
241.03,0.0444
241.51,0.0455
241.99,0.0468
242.47,0.0454
242.95,0.0477
243.43,0.0474
243.91,0.0443
244.39,0.0464
244.87,0.0437
245.34,0.0456
245.82,0.0477
246.3,0.0461
246.78,0.0463
247.26,0.048
247.74,0.0475
248.22,0.0462
248.7,0.0466
249.18,0.0451
249.66,0.0457
250.13,0.0491
250.61,0.0443
251.09,0.0464
251.57,0.0461
252.05,0.0469
252.53,0.0449
253.01,0.0453
253.48,0.046
253.96,0.0445
254.44,0.0465
254.92,0.0449
255.4,0.0442
255.88,0.0459
256.36,0.0451
256.83,0.0456
257.31,0.0437
257.79,0.0459
258.27,0.0478
258.75,0.0451
259.22,0.0468
259.7,0.0454
260.18,0.0469
260.66,0.0458
261.14,0.0476
261.62,0.0452
262.09,0.0462
262.57,0.0444
263.05,0.0469
263.53,0.0458
264.01,0.0465
264.48,0.047
264.96,0.0472
265.44,0.0467
265.92,0.0446
266.39,0.0477
266.87,0.047
267.35,0.0459
267.83,0.0457
268.31,0.0443
268.78,0.0458
269.26,0.0447
269.74,0.047
270.22,0.0424
270.69,0.0447
271.17,0.046
271.65,0.0448
272.13,0.0454
272.6,0.0447
273.08,0.0461
273.56,0.0455
274.03,0.0454
274.51,0.0457
274.99,0.0457
275.47,0.0452
275.94,0.0458
276.42,0.0457
276.9,0.0448
277.37,0.0448
277.85,0.0451
278.33,0.0462
278.81,0.0434
279.28,0.0485
279.76,0.047
280.24,0.0441
280.71,0.0467
281.19,0.0452
281.67,0.0459
282.14,0.0457
282.62,0.048
283.1,0.0416
283.57,0.044
284.05,0.0463
284.53,0.0459
285.0,0.0457
285.48,0.0451
285.96,0.0463
286.43,0.0443
286.91,0.0464
287.39,0.0445
287.86,0.0448
288.34,0.0466
288.82,0.0223
289.29,0.0475
289.77,0.0458
290.24,0.0429
290.72,0.0457
291.2,0.0444
291.67,0.047
292.15,0.045
292.63,0.0454
293.1,0.0452
293.58,0.0464
294.05,0.047
294.53,0.0452
295.01,0.0442
295.48,0.0455
295.96,0.0457
296.43,0.0463
296.91,0.0446
297.38,0.0436
297.86,0.043
298.34,0.0442
298.81,0.0437
299.29,0.0427
299.76,0.0448
300.24,0.0448
300.71,0.043
301.19,0.0457
301.67,0.0447
302.14,0.0436
302.62,0.0432
303.09,0.0448
303.57,0.0444
304.04,0.0449
304.52,0.045
304.99,0.0467
305.47,0.045
305.94,0.0483
306.42,0.0432
306.89,0.0447
307.37,0.0434
307.85,0.0447
308.32,0.0447
308.8,0.0432
309.27,0.0444
309.75,0.0436
310.22,0.046
310.7,0.0454
311.17,0.0434
311.65,0.0447
312.12,0.0467
312.6,0.0447
313.07,0.044
313.54,0.0458
314.02,0.0436
314.49,0.0455
314.97,0.0444
315.44,0.0442
315.92,0.0455
316.39,0.0459
316.87,0.0457
317.34,0.0433
317.82,0.0445
318.29,0.0442
318.77,0.046
319.24,0.0445
319.71,0.0448
320.19,0.0439
320.66,0.0443
321.14,0.0437
321.61,0.0452
322.09,0.0446
322.56,0.0445
323.03,0.043
323.51,0.0446
323.98,0.0451
324.46,0.0443
324.93,0.0444
325.41,0.0426
325.88,0.0451
326.35,0.0438
326.83,0.0453
327.3,0.0445
327.78,0.0441
328.25,0.044
328.72,0.046
329.2,0.0456
329.67,0.0444
330.14,0.0445
330.62,0.0426
331.09,0.0447
331.57,0.0432
332.04,0.0447
332.51,0.0445
332.99,0.0439
333.46,0.0449
333.93,0.0448
334.41,0.0432
334.88,0.0442
335.35,0.0448
335.83,0.0426
336.3,0.0451
336.77,0.045
337.25,0.0441
337.72,0.043
338.19,0.0456
338.67,0.0433
339.14,0.0439
339.61,0.0432
340.09,0.0447
340.56,0.0441
341.03,0.0435
341.51,0.0432
341.98,0.0442
342.45,0.0435
342.92,0.0437
343.4,0.0441
343.87,0.0438
344.34,0.0434
344.82,0.0433
345.29,0.0428
345.76,0.0439
346.23,0.0437
346.71,0.0436
347.18,0.043
347.65,0.0441
348.13,0.0441
348.6,0.0435
349.07,0.0437
349.54,0.0442
350.02,0.043
350.49,0.044
350.96,0.0439
351.43,0.0427
351.91,0.043
352.38,0.0434
352.85,0.0435
353.32,0.0436
353.79,0.0431
354.27,0.044
354.74,0.0435
355.21,0.0427
355.68,0.0434
356.16,0.0434
356.63,0.0434
357.1,0.043
357.57,0.0435
358.04,0.0433
358.52,0.0441
358.99,0.0427
359.46,0.0433
359.93,0.0431
360.4,0.0431
360.88,0.0432
361.35,0.0436
361.82,0.0431
362.29,0.0433
362.76,0.0431
363.23,0.0433
363.71,0.0415
364.18,0.0433
364.65,0.0427
365.12,0.0432
365.59,0.0436
366.06,0.0425
366.54,0.043
367.01,0.0425
367.48,0.0426
367.95,0.0431
368.42,0.0433
368.89,0.0432
369.36,0.0435
369.84,0.0432
370.31,0.0428
370.78,0.0429
371.25,0.0419
371.72,0.0433
372.19,0.043
372.66,0.0425
373.13,0.0425
373.6,0.0429
374.08,0.0426
374.55,0.0423
375.02,0.0431
375.49,0.0431
375.96,0.0429
376.43,0.0427
376.9,0.0429
377.37,0.0431
377.84,0.0422
378.31,0.0427
378.78,0.0432
379.25,0.0435
379.73,0.0429
380.2,0.0427
380.67,0.0428
381.14,0.0423
381.61,0.0429
382.08,0.0426
382.55,0.0424
383.02,0.0429
383.49,0.0427
383.96,0.0429
384.43,0.0428
384.9,0.0425
385.37,0.043
385.84,0.0424
386.31,0.0427
386.78,0.0428
387.25,0.0428
387.72,0.0424
388.19,0.0425
388.66,0.0427
389.13,0.0427
389.6,0.0424
390.07,0.0426
390.54,0.0432
391.01,0.0424
391.48,0.0428
391.95,0.0428
392.42,0.0431
392.89,0.0426
393.36,0.0426
393.83,0.0427
394.3,0.0431
394.77,0.0428
395.24,0.0421
395.71,0.0429
396.18,0.0427
396.65,0.0429
397.12,0.0429
397.59,0.0429
398.06,0.0428
398.53,0.0425
399.0,0.0429
399.47,0.0427
399.94,0.0427
400.41,0.0424
400.87,0.0426
401.34,0.0427
401.81,0.0427
402.28,0.0428
402.75,0.0426
403.22,0.0427
403.69,0.0427
404.16,0.0427
404.63,0.0428
405.1,0.0427
405.57,0.0423
406.04,0.0424
406.5,0.0427
406.97,0.0423
407.44,0.0426
407.91,0.0427
408.38,0.0425
408.85,0.0423
409.32,0.0429
409.79,0.0424
410.26,0.0424
410.72,0.0426
411.19,0.0423
411.66,0.0423
412.13,0.0424
412.6,0.0423
413.07,0.0424
413.54,0.0425
414.0,0.0425
414.47,0.0423
414.94,0.0425
415.41,0.0422
415.88,0.0423
416.35,0.0424
416.82,0.0423
417.28,0.0425
417.75,0.0423
418.22,0.0426
418.69,0.0423
419.16,0.0424
419.62,0.0424
420.09,0.0426
420.56,0.0422
421.03,0.0422
421.5,0.0423
421.97,0.0422
422.43,0.0422
422.9,0.0421
423.37,0.0419
423.84,0.0423
424.3,0.0422
424.77,0.0421
425.24,0.0423
425.71,0.0422
426.18,0.042
426.64,0.0422
427.11,0.0423
427.58,0.0426
428.05,0.0422
428.51,0.0422
428.98,0.042
429.45,0.0421
429.92,0.042
430.38,0.0422
430.85,0.0421
431.32,0.0421
431.79,0.0421
432.25,0.0421
432.72,0.042
433.19,0.042
433.66,0.042
434.12,0.0421
434.59,0.0421
435.06,0.0421
435.53,0.042
435.99,0.0423
436.46,0.042
436.93,0.042
437.39,0.0421
437.86,0.042
438.33,0.0419
438.79,0.0418
439.26,0.042
439.73,0.0418
440.2,0.0418
440.66,0.0419
441.13,0.0418
441.6,0.0419
442.06,0.0419
442.53,0.042
443.0,0.0419
443.46,0.0419
443.93,0.0418
444.4,0.0418
444.86,0.0418
445.33,0.0418
445.8,0.0417
446.26,0.0417
446.73,0.0418
447.2,0.0417
447.66,0.0417
448.13,0.0418
448.59,0.0416
449.06,0.0417
449.53,0.0417
449.99,0.0417
450.46,0.0416
450.93,0.0414
451.39,0.0415
451.86,0.0414
452.32,0.0414
452.79,0.0414
453.26,0.0415
453.72,0.0415
454.19,0.0415
454.65,0.0414
455.12,0.0413
455.59,0.0414
456.05,0.0414
456.52,0.0414
456.98,0.0414
457.45,0.0414
457.92,0.0414
458.38,0.0414
458.85,0.0411
459.31,0.0414
459.78,0.0412
460.24,0.0412
460.71,0.0412
461.17,0.0412
461.64,0.0412
462.11,0.0412
462.57,0.0412
463.04,0.0412
463.5,0.0411
463.97,0.0412
464.43,0.0412
464.9,0.0411
465.36,0.041
465.83,0.041
466.29,0.041
466.76,0.0411
467.22,0.0411
467.69,0.0409
468.16,0.0412
468.62,0.0409
469.09,0.0409
469.55,0.0411
470.02,0.041
470.48,0.0409
470.95,0.041
471.41,0.0407
471.88,0.0409
472.34,0.041
472.8,0.041
473.27,0.0409
473.73,0.0409
474.2,0.041
474.66,0.0409
475.13,0.0409
475.59,0.0409
476.06,0.041
476.52,0.0408
476.99,0.0409
477.45,0.0409
477.92,0.0409
478.38,0.0408
478.85,0.041
479.31,0.0409
479.77,0.0408
480.24,0.0409
480.7,0.0408
481.17,0.0408
481.63,0.0408
482.1,0.0408
482.56,0.0408
483.02,0.0409
483.49,0.0408
483.95,0.0409
484.42,0.0408
484.88,0.0409
485.34,0.0409
485.81,0.0408
486.27,0.0409
486.74,0.0408
487.2,0.0408
487.66,0.0409
488.13,0.0409
488.59,0.0408
489.06,0.0409
489.52,0.0408
489.98,0.0408
490.45,0.0408
490.91,0.0408
491.38,0.0409
491.84,0.0408
492.3,0.0407
492.77,0.0408
493.23,0.0409
493.69,0.0407
494.16,0.0408
494.62,0.0408
495.08,0.0408
495.55,0.0408
496.01,0.0408
496.47,0.0407
496.94,0.0409
497.4,0.0409
497.86,0.0408
498.33,0.0407
498.79,0.0408
499.25,0.0409
499.72,0.0409
500.18,0.0408
500.64,0.0408
501.11,0.0408
501.57,0.0408
502.03,0.0409
502.5,0.0408
502.96,0.0408
503.42,0.0407
503.88,0.0408
504.35,0.0407
504.81,0.0406
505.27,0.0407
505.74,0.0407
506.2,0.0407
506.66,0.0407
507.12,0.0408
507.59,0.0407
508.05,0.0407
508.51,0.0408
508.97,0.0408
509.44,0.0408
509.9,0.0407
510.36,0.0408
510.82,0.0407
511.29,0.0407
511.75,0.0407
512.21,0.0407
512.67,0.0407
513.14,0.0407
513.6,0.0408
514.06,0.0408
514.52,0.0408
514.99,0.0408
515.45,0.0408
515.91,0.0408
516.37,0.0407
516.83,0.0407
517.3,0.0407
517.76,0.0409
518.22,0.0408
518.68,0.0408
519.14,0.0408
519.61,0.0408
520.07,0.0408
520.53,0.0408
520.99,0.0408
521.45,0.0408
521.91,0.0409
522.38,0.0409
522.84,0.0409
523.3,0.0409
523.76,0.041
524.22,0.0409
524.68,0.0409
525.15,0.0409
525.61,0.0409
526.07,0.041
526.53,0.041
526.99,0.041
527.45,0.041
527.92,0.0409
528.38,0.041
528.84,0.041
529.3,0.0409
529.76,0.041
530.22,0.041
530.68,0.041
531.14,0.041
531.61,0.0411
532.07,0.041
532.53,0.041
532.99,0.0411
533.45,0.0411
533.91,0.0411
534.37,0.0411
534.83,0.0411
535.29,0.0411
535.75,0.0412
536.22,0.0412
536.68,0.0413
537.14,0.0412
537.6,0.0411
538.06,0.0412
538.52,0.0412
538.98,0.0413
539.44,0.0413
539.9,0.0413
540.36,0.0414
540.82,0.0413
541.28,0.0414
541.74,0.0413
542.2,0.0415
542.67,0.0414
543.13,0.0415
543.59,0.0414
544.05,0.0415
544.51,0.0415
544.97,0.0416
545.43,0.0415
545.89,0.0416
546.35,0.0416
546.81,0.0416
547.27,0.0416
547.73,0.0416
548.19,0.0416
548.65,0.0417
549.11,0.0417
549.57,0.0417
550.03,0.0417
550.49,0.0417
550.95,0.0417
551.41,0.0418
551.87,0.0418
552.33,0.0418
552.79,0.0418
553.25,0.0419
553.71,0.0419
554.17,0.0419
554.63,0.0419
555.09,0.0419
555.55,0.042
556.01,0.0421
556.47,0.042
556.93,0.0421
557.39,0.0421
557.85,0.0421
558.3,0.0422
558.76,0.0422
559.22,0.0423
559.68,0.0422
560.14,0.0424
560.6,0.0424
561.06,0.0424
561.52,0.0424
561.98,0.0425
562.44,0.0424
562.9,0.0425
563.36,0.0425
563.82,0.0425
564.28,0.0426
564.74,0.0426
565.19,0.0427
565.65,0.0427
566.11,0.0427
566.57,0.0427
567.03,0.0428
567.49,0.0427
567.95,0.0428
568.41,0.0427
568.87,0.0428
569.32,0.0429
569.78,0.043
570.24,0.043
570.7,0.043
571.16,0.0431
571.62,0.0431
572.08,0.0431
572.54,0.0431
572.99,0.0432
573.45,0.0433
573.91,0.0433
574.37,0.0434
574.83,0.0434
575.29,0.0434
575.75,0.0435
576.2,0.0435
576.66,0.0435
577.12,0.0436
577.58,0.0437
578.04,0.0437
578.5,0.0437
578.95,0.0438
579.41,0.0438
579.87,0.0438
580.33,0.0439
580.79,0.0439
581.24,0.0439
581.7,0.0439
582.16,0.0439
582.62,0.044
583.08,0.0441
583.53,0.0441
583.99,0.0442
584.45,0.0442
584.91,0.0443
585.37,0.0443
585.82,0.0443
586.28,0.0444
586.74,0.0444
587.2,0.0445
587.65,0.0445
588.11,0.0446
588.57,0.0445
589.03,0.0446
589.48,0.0447
589.94,0.0448
590.4,0.0447
590.86,0.0448
591.31,0.0448
591.77,0.0449
592.23,0.0449
592.69,0.045
593.14,0.045
593.6,0.0451
594.06,0.0451
594.52,0.0451
594.97,0.0452
595.43,0.0452
595.89,0.0452
596.34,0.0453
596.8,0.0453
597.26,0.0454
597.72,0.0453
598.17,0.0454
598.63,0.0455
599.09,0.0456
599.54,0.0455
600.0,0.0456
600.46,0.0457
600.91,0.0457
601.37,0.0457
601.83,0.0458
602.28,0.0458
602.74,0.0459
603.2,0.0458
603.66,0.0459
604.11,0.046
604.57,0.046
605.03,0.0461
605.48,0.046
605.94,0.046
606.39,0.0461
606.85,0.0461
607.31,0.0461
607.76,0.0461
608.22,0.0462
608.68,0.0463
609.13,0.0462
609.59,0.0462
610.05,0.0462
610.5,0.0463
610.96,0.0464
611.41,0.0464
611.87,0.0464
612.33,0.0464
612.78,0.0464
613.24,0.0464
613.7,0.0465
614.15,0.0466
614.61,0.0465
615.06,0.0466
615.52,0.0466
615.97,0.0466
616.43,0.0466
616.89,0.0467
617.34,0.0466
617.8,0.0467
618.25,0.0467
618.71,0.0468
619.17,0.0467
619.62,0.0468
620.08,0.0468
620.53,0.0469
620.99,0.0468
621.44,0.0469
621.9,0.0469
622.35,0.0469
622.81,0.047
623.27,0.047
623.72,0.047
624.18,0.0471
624.63,0.047
625.09,0.0471
625.54,0.0471
626.0,0.047
626.45,0.0471
626.91,0.047
627.36,0.0471
627.82,0.0471
628.27,0.0471
628.73,0.0471
629.18,0.0471
629.64,0.0471
630.09,0.0471
630.55,0.0471
631.0,0.0472
631.46,0.0471
631.91,0.0472
632.37,0.0471
632.82,0.0472
633.28,0.0472
633.73,0.0472
634.19,0.0472
634.64,0.0472
635.1,0.0473
635.55,0.0472
636.01,0.0473
636.46,0.0473
636.92,0.0473
637.37,0.0473
637.83,0.0474
638.28,0.0474
638.73,0.0474
639.19,0.0474
639.64,0.0474
640.1,0.0474
640.55,0.0474
641.01,0.0474
641.46,0.0475
641.92,0.0475
642.37,0.0475
642.82,0.0475
643.28,0.0475
643.73,0.0476
644.19,0.0475
644.64,0.0476
645.09,0.0476
645.55,0.0476
646.0,0.0476
646.46,0.0476
646.91,0.0476
647.36,0.0477
647.82,0.0477
648.27,0.0477
648.73,0.0477
649.18,0.0477
649.63,0.0477
650.09,0.0478
650.54,0.0478
651.0,0.0478
651.45,0.0478
651.9,0.0478
652.36,0.0478
652.81,0.0479
653.26,0.0478
653.72,0.0478
654.17,0.0478
654.62,0.0479
655.08,0.0478
655.53,0.0478
655.98,0.0479
656.44,0.0479
656.89,0.0479
657.34,0.0479
657.8,0.0479
658.25,0.0479
658.7,0.048
659.16,0.048
659.61,0.048
660.06,0.048
660.52,0.048
660.97,0.048
661.42,0.048
661.88,0.0479
662.33,0.048
662.78,0.048
663.24,0.048
663.69,0.048
664.14,0.0481
664.59,0.0481
665.05,0.0481
665.5,0.0481
665.95,0.0481
666.41,0.0481
666.86,0.0481
667.31,0.0481
667.76,0.0481
668.22,0.0481
668.67,0.0481
669.12,0.0481
669.57,0.0482
670.03,0.0482
670.48,0.0483
670.93,0.0483
671.38,0.0482
671.84,0.0483
672.29,0.0483
672.74,0.0482
673.19,0.0483
673.65,0.0483
674.1,0.0482
674.55,0.0482
675.0,0.0482
675.46,0.0483
675.91,0.0483
676.36,0.0483
676.81,0.0483
677.26,0.0482
677.72,0.0483
678.17,0.0482
678.62,0.0482
679.07,0.0483
679.52,0.0483
679.98,0.0483
680.43,0.0482
680.88,0.0482
681.33,0.0482
681.78,0.0483
682.24,0.0483
682.69,0.0483
683.14,0.0483
683.59,0.0483
684.04,0.0483
684.49,0.0483
684.95,0.0483
685.4,0.0483
685.85,0.0484
686.3,0.0484
686.75,0.0484
687.2,0.0485
687.65,0.0484
688.11,0.0485
688.56,0.0485
689.01,0.0485
689.46,0.0485
689.91,0.0485
690.36,0.0485
690.81,0.0486
691.27,0.0486
691.72,0.0486
692.17,0.0486
692.62,0.0486
693.07,0.0486
693.52,0.0487
693.97,0.0487
694.42,0.0487
694.87,0.0487
695.32,0.0487
695.78,0.0487
696.23,0.0488
696.68,0.0488
697.13,0.0487
697.58,0.0487
698.03,0.0488
698.48,0.0488
698.93,0.0488
699.38,0.0488
699.83,0.0488
700.28,0.0488
700.73,0.0488
701.19,0.0488
701.64,0.0488
702.09,0.0488
702.54,0.0488
702.99,0.0488
703.44,0.0488
703.89,0.0487
704.34,0.0487
704.79,0.0488
705.24,0.0487
705.69,0.0488
706.14,0.0488
706.59,0.0488
707.04,0.0488
707.49,0.0488
707.94,0.0488
708.39,0.0488
708.84,0.0488
709.29,0.0488
709.74,0.0488
710.19,0.0488
710.64,0.0488
711.09,0.0488
711.54,0.0488
711.99,0.0487
712.44,0.0487
712.89,0.0487
713.34,0.0488
713.79,0.0488
714.24,0.0488
714.69,0.0488
715.14,0.0488
715.59,0.0488
716.04,0.0488
716.49,0.0488
716.94,0.0488
717.39,0.0488
717.84,0.0488
718.29,0.0488
718.74,0.0489
719.19,0.0488
719.64,0.0489
720.09,0.0488
720.53,0.0489
720.98,0.0489
721.43,0.0489
721.88,0.0489
722.33,0.0489
722.78,0.0489
723.23,0.0488
723.68,0.0488
724.13,0.0488
724.58,0.0488
725.03,0.0488
725.48,0.0488
725.93,0.0488
726.37,0.0488
726.82,0.0488
727.27,0.0488
727.72,0.0488
728.17,0.0488
728.62,0.0487
729.07,0.0488
729.52,0.0487
729.97,0.0487
730.41,0.0487
730.86,0.0487
731.31,0.0487
731.76,0.0487
732.21,0.0488
732.66,0.0488
733.11,0.0488
733.56,0.0488
734.0,0.0488
734.45,0.0488
734.9,0.0487
735.35,0.0487
735.8,0.0488
736.25,0.0488
736.7,0.0488
737.14,0.0488
737.59,0.0488
738.04,0.0488
738.49,0.0487
738.94,0.0487
739.38,0.0487
739.83,0.0488
740.28,0.0487
740.73,0.0487
741.18,0.0487
741.63,0.0487
742.07,0.0487
742.52,0.0487
742.97,0.0487
743.42,0.0487
743.87,0.0487
744.31,0.0487
744.76,0.0487
745.21,0.0487
745.66,0.0487
746.11,0.0487
746.55,0.0487
747.0,0.0487
747.45,0.0487
747.9,0.0487
748.34,0.0486
748.79,0.0487
749.24,0.0487
749.69,0.0487
750.13,0.0486
750.58,0.0487
751.03,0.0487
751.48,0.0486
751.92,0.0486
752.37,0.0486
752.82,0.0486
753.27,0.0486
753.71,0.0486
754.16,0.0486
754.61,0.0485
755.06,0.0486
755.5,0.0485
755.95,0.0485
756.4,0.0485
756.84,0.0485
757.29,0.0484
757.74,0.0484
758.19,0.0484
758.63,0.0484
759.08,0.0483
759.53,0.0484
759.97,0.0484
760.42,0.0483
760.87,0.0483
761.31,0.0483
761.76,0.0483
762.21,0.0483
762.65,0.0483
763.1,0.0482
763.55,0.0482
764.0,0.0482
764.44,0.0482
764.89,0.0481
765.34,0.0481
765.78,0.0481
766.23,0.048
766.67,0.0481
767.12,0.048
767.57,0.048
768.01,0.048
768.46,0.048
768.91,0.048
769.35,0.048
769.8,0.0479
770.25,0.048
770.69,0.048
771.14,0.0479
771.58,0.0479
772.03,0.0478
772.48,0.0478
772.92,0.0478
773.37,0.0478
773.82,0.0478
774.26,0.0478
774.71,0.0478
775.15,0.0478
775.6,0.0478
776.05,0.0477
776.49,0.0477
776.94,0.0477
777.38,0.0477
777.83,0.0477
778.28,0.0477
778.72,0.0476
779.17,0.0476
779.61,0.0476
780.06,0.0476
780.5,0.0476
780.95,0.0475
781.4,0.0475
781.84,0.0475
782.29,0.0475
782.73,0.0475
783.18,0.0474
783.62,0.0474
784.07,0.0474
784.51,0.0474
784.96,0.0474
785.4,0.0474
785.85,0.0474
786.3,0.0474
786.74,0.0473
787.19,0.0473
787.63,0.0474
788.08,0.0473
788.52,0.0473
788.97,0.0473
789.41,0.0473
789.86,0.0473
790.3,0.0473
790.75,0.0473
791.19,0.0473
791.64,0.0473
792.08,0.0472
792.53,0.0471
792.97,0.0472
793.42,0.0471
793.86,0.0471
794.31,0.0471
794.75,0.0471
795.2,0.0471
795.64,0.047
796.09,0.047
796.53,0.047
796.97,0.0469
797.42,0.0469
797.86,0.0469
798.31,0.0469
798.75,0.0469
799.2,0.0469
799.64,0.0468
800.09,0.0468
800.53,0.0468
800.98,0.0468
801.42,0.0467
801.86,0.0467
802.31,0.0467
802.75,0.0467
803.2,0.0467
803.64,0.0466
804.09,0.0466
804.53,0.0466
804.97,0.0466
805.42,0.0466
805.86,0.0466
806.31,0.0465
806.75,0.0465
807.19,0.0465
807.64,0.0464
808.08,0.0464
808.53,0.0465
808.97,0.0464
809.41,0.0463
809.86,0.0463
810.3,0.0463
810.75,0.0462
811.19,0.0463
811.63,0.0463
812.08,0.0463
812.52,0.0463
812.96,0.0462
813.41,0.0463
813.85,0.0462
814.29,0.0462
814.74,0.0461
815.18,0.0462
815.63,0.0462
816.07,0.0462
816.51,0.0461
816.96,0.0461
817.4,0.0461
817.84,0.046
818.29,0.046
818.73,0.0459
819.17,0.046
819.62,0.0459
820.06,0.0459
820.5,0.0459
820.95,0.0459
821.39,0.0459
821.83,0.0459
822.27,0.0458
822.72,0.0458
823.16,0.0458
823.6,0.0458
824.05,0.0457
824.49,0.0456
824.93,0.0457
825.38,0.0456
825.82,0.0456
826.26,0.0455
826.7,0.0455
827.15,0.0455
827.59,0.0455
828.03,0.0455
828.48,0.0454
828.92,0.0454
829.36,0.0454
829.8,0.0453
830.25,0.0454
830.69,0.0453
831.13,0.0454
831.57,0.0453
832.02,0.0453
832.46,0.0453
832.9,0.0452
833.34,0.0453
833.79,0.0452
834.23,0.0452
834.67,0.0452
835.11,0.0451
835.55,0.0451
836.0,0.0451
836.44,0.0451
836.88,0.0451
837.32,0.045
837.77,0.045
838.21,0.045
838.65,0.0449
839.09,0.045
839.53,0.0449
839.98,0.0449
840.42,0.0449
840.86,0.0449
841.3,0.0448
841.74,0.0448
842.19,0.0448
842.63,0.0448
843.07,0.0448
843.51,0.0448
843.95,0.0448
844.39,0.0447
844.84,0.0447
845.28,0.0447
845.72,0.0447
846.16,0.0446
846.6,0.0447
847.04,0.0447
847.49,0.0446
847.93,0.0446
848.37,0.0446
848.81,0.0446
849.25,0.0446
849.69,0.0445
850.13,0.0445
850.58,0.0445
851.02,0.0445
851.46,0.0445
851.9,0.0444
852.34,0.0444
852.78,0.0444
853.22,0.0444
853.66,0.0444
854.11,0.0443
854.55,0.0443
854.99,0.0443
855.43,0.0443
855.87,0.0443
856.31,0.0443
856.75,0.0442
857.19,0.0442
857.63,0.0442
858.07,0.0441
858.51,0.0442
858.96,0.0441
859.4,0.0441
859.84,0.0441
860.28,0.044
860.72,0.0441
861.16,0.0441
861.6,0.044
862.04,0.0441
862.48,0.0441
862.92,0.044
863.36,0.044
863.8,0.0439
864.24,0.0439
864.68,0.0439
865.12,0.0439
865.56,0.0439
866.01,0.0439
866.45,0.0438
866.89,0.0438
867.33,0.0438
867.77,0.0438
868.21,0.0438
868.65,0.0439
869.09,0.0439
869.53,0.0438
869.97,0.0438
870.41,0.0438
870.85,0.0437
871.29,0.0437
871.73,0.0437
872.17,0.0436
872.61,0.0436
873.05,0.0436
873.49,0.0436
873.93,0.0436
874.37,0.0436
874.81,0.0436
875.25,0.0435
875.69,0.0435
876.13,0.0435
876.57,0.0434
877.01,0.0434
877.45,0.0435
877.88,0.0434
878.32,0.0434
878.76,0.0434
879.2,0.0434
879.64,0.0434
880.08,0.0433
880.52,0.0433
880.96,0.0433
881.4,0.0433
881.84,0.0433
882.28,0.0433
882.72,0.0433
883.16,0.0432
883.6,0.0433
884.04,0.0433
884.48,0.0433
884.92,0.0433
885.35,0.0433
885.79,0.0433
886.23,0.0432
886.67,0.0432
887.11,0.0432
887.55,0.0433
887.99,0.0433
888.43,0.0433
888.87,0.0432
889.31,0.0433
889.75,0.0432
890.18,0.0432
890.62,0.0432
891.06,0.0432
891.5,0.0432
891.94,0.0432
892.38,0.0432
892.82,0.0432
893.26,0.0432
893.69,0.0431
894.13,0.0432
894.57,0.0431
895.01,0.0431
895.45,0.0431
895.89,0.0431
896.33,0.0431
896.76,0.0431
897.2,0.043
897.64,0.043
898.08,0.043
898.52,0.043
898.96,0.043
899.39,0.043
899.83,0.043
900.27,0.043
900.71,0.043
901.15,0.043
901.59,0.043
902.02,0.043
902.46,0.043
902.9,0.043
903.34,0.043
903.78,0.0429
904.21,0.043
904.65,0.0429
905.09,0.043
905.53,0.0429
905.97,0.0429
906.4,0.0429
906.84,0.0429
907.28,0.0429
907.72,0.0429
908.15,0.0429
908.59,0.0429
909.03,0.0429
909.47,0.0429
909.91,0.0429
910.34,0.0429
910.78,0.0428
911.22,0.0428
911.66,0.0428
912.09,0.0428
912.53,0.0428
912.97,0.0427
913.41,0.0427
913.84,0.0427
914.28,0.0427
914.72,0.0426
915.16,0.0426
915.59,0.0426
916.03,0.0427
916.47,0.0426
916.9,0.0427
917.34,0.0426
917.78,0.0427
918.22,0.0427
918.65,0.0426
919.09,0.0427
919.53,0.0427
919.96,0.0426
920.4,0.0426
920.84,0.0426
921.28,0.0426
921.71,0.0426
922.15,0.0426
922.59,0.0426
923.02,0.0426
923.46,0.0426
923.9,0.0426
924.33,0.0426
924.77,0.0425
925.21,0.0425
925.64,0.0425
926.08,0.0425
926.52,0.0425
926.95,0.0425
927.39,0.0425
927.83,0.0425
928.26,0.0425
928.7,0.0425
929.14,0.0425
929.57,0.0426
930.01,0.0424
930.44,0.0425
930.88,0.0425
931.32,0.0425
931.75,0.0425
932.19,0.0425
932.63,0.0424
933.06,0.0425
933.5,0.0424
933.94,0.0425
934.37,0.0425
934.81,0.0425
935.24,0.0425
935.68,0.0424
936.12,0.0424
936.55,0.0424
936.99,0.0425
937.42,0.0425
937.86,0.0424
938.3,0.0424
938.73,0.0424
939.17,0.0424
939.6,0.0424
940.04,0.0424
940.47,0.0424
940.91,0.0424
941.35,0.0423
941.78,0.0424
942.22,0.0424
942.65,0.0424
943.09,0.0424
943.52,0.0423
943.96,0.0423
944.4,0.0423
944.83,0.0423
945.27,0.0424
945.7,0.0424
946.14,0.0424
946.57,0.0424
947.01,0.0424
947.44,0.0424
947.88,0.0424
948.31,0.0424
948.75,0.0424
949.18,0.0423
949.62,0.0423
950.05,0.0423
950.49,0.0422
950.92,0.0423
951.36,0.0423
951.79,0.0422
952.23,0.0422
952.67,0.0422
953.1,0.0423
953.53,0.0422
953.97,0.0423
954.4,0.0422
954.84,0.0422
955.27,0.0422
955.71,0.0422
956.14,0.0422
956.58,0.0422
957.01,0.0422
957.45,0.0422
957.88,0.0422
958.32,0.0422
958.75,0.0422
959.19,0.0422
959.62,0.0422
960.06,0.0421
960.49,0.0421
960.93,0.0421
961.36,0.0421
961.79,0.0421
962.23,0.0421
962.66,0.0421
963.1,0.0422
963.53,0.0422
963.97,0.0422
964.4,0.0421
964.83,0.0421
965.27,0.0421
965.7,0.0421
966.14,0.0421
966.57,0.0422
967.01,0.042
967.44,0.0421
967.87,0.042
968.31,0.042
968.74,0.042
969.18,0.0421
969.61,0.042
970.04,0.042
970.48,0.042
970.91,0.042
971.35,0.042
971.78,0.042
972.21,0.0421
972.65,0.042
973.08,0.042
973.51,0.042
973.95,0.042
974.38,0.042
974.82,0.042
975.25,0.042
975.68,0.0419
976.12,0.042
976.55,0.0419
976.98,0.0419
977.42,0.042
977.85,0.0419
978.28,0.0419
978.72,0.0419
979.15,0.0419
979.58,0.0419
980.02,0.0419
980.45,0.0419
980.88,0.0419
981.32,0.0419
981.75,0.0419
982.18,0.0418
982.62,0.0418
983.05,0.0418
983.48,0.0417
983.92,0.0418
984.35,0.0418
984.78,0.0418
985.21,0.0417
985.65,0.0418
986.08,0.0418
986.51,0.0417
986.95,0.0417
987.38,0.0417
987.81,0.0418
988.24,0.0418
988.68,0.0418
989.11,0.0418
989.54,0.0418
989.98,0.0418
990.41,0.0417
990.84,0.0417
991.27,0.0417
991.71,0.0418
992.14,0.0417
992.57,0.0417
993.0,0.0418
993.44,0.0417
993.87,0.0417
994.3,0.0417
994.73,0.0416
995.17,0.0416
995.6,0.0417
996.03,0.0417
996.46,0.0417
996.9,0.0417
997.33,0.0416
997.76,0.0417
998.19,0.0417
998.62,0.0416
999.06,0.0416
999.49,0.0416
999.92,0.0416
1000.35,0.0417
1000.78,0.0416
1001.22,0.0416
1001.65,0.0416
1002.08,0.0416
1002.51,0.0416
1002.94,0.0416
1003.38,0.0416
1003.81,0.0416
1004.24,0.0415
1004.67,0.0416
1005.1,0.0416
1005.54,0.0416
1005.97,0.0416
1006.4,0.0416
1006.83,0.0415
1007.26,0.0416
1007.69,0.0416
1008.13,0.0415
1008.56,0.0416
1008.99,0.0415
1009.42,0.0416
1009.85,0.0416
1010.28,0.0415
1010.71,0.0415
1011.15,0.0416
1011.58,0.0416
1012.01,0.0416
1012.44,0.0416
1012.87,0.0415
1013.3,0.0415
1013.73,0.0415
1014.17,0.0416
1014.6,0.0415
1015.03,0.0415
1015.46,0.0415
1015.89,0.0416
1016.32,0.0415
1016.75,0.0415
1017.18,0.0415
1017.61,0.0416
1018.04,0.0416
1018.48,0.0416
1018.91,0.0415
1019.34,0.0415
1019.77,0.0416
1020.2,0.0415
1020.63,0.0415
1021.06,0.0415
1021.49,0.0416
1021.92,0.0415
1022.35,0.0416
1022.78,0.0415
1023.21,0.0415
1023.65,0.0415
1024.08,0.0415
1024.51,0.0414
1024.94,0.0414
1025.37,0.0415
1025.8,0.0416
1026.23,0.0415
1026.66,0.0415
1027.09,0.0414
1027.52,0.0414
1027.95,0.0413
1028.38,0.0414
1028.81,0.0413
1029.24,0.0414
1029.67,0.0413
1030.1,0.0414
1030.53,0.0413
1030.96,0.0414
1031.39,0.0414
1031.82,0.0414
1032.25,0.0414
1032.68,0.0415
1033.11,0.0413
1033.54,0.0412
1033.97,0.0413
1034.4,0.0413
1034.83,0.0413
1035.26,0.0413
1035.69,0.0414
1036.12,0.0414
1036.55,0.0413
1036.98,0.0413
1037.41,0.0413
1037.84,0.0413
1038.27,0.0412
1038.7,0.0412
1039.13,0.0413
1039.56,0.0413
1039.99,0.0412
1040.42,0.0413
1040.85,0.0413
1041.28,0.0412
1041.71,0.0412
1042.14,0.0412
1042.57,0.0412
1043.0,0.0412
1043.43,0.0412
1043.85,0.0412
1044.28,0.0412
1044.71,0.0412
1045.14,0.0412
1045.57,0.0412
1046.0,0.0412
1046.43,0.0412
1046.86,0.0412
1047.29,0.0412
1047.72,0.0412
1048.15,0.0412
1048.58,0.0411
1049.01,0.0412
1049.43,0.0412
1049.86,0.0412
1050.29,0.0411
1050.72,0.0411
1051.15,0.0412
1051.58,0.0412
1052.01,0.0412
1052.44,0.0412
1052.87,0.0411
1053.29,0.0411
1053.72,0.0411
1054.15,0.0411
1054.58,0.0412
1055.01,0.0411
1055.44,0.0411
1055.87,0.0411
1056.3,0.0412
1056.72,0.041
1057.15,0.0411
1057.58,0.0411
1058.01,0.0411
1058.44,0.0411
1058.87,0.0411
1059.3,0.041
1059.72,0.0412
1060.15,0.0412
1060.58,0.0411
1061.01,0.0411
1061.44,0.0411
1061.87,0.0411
1062.29,0.041
1062.72,0.041
1063.15,0.041
1063.58,0.041
1064.01,0.041
1064.43,0.041
1064.86,0.041
1065.29,0.041
1065.72,0.041
1066.15,0.041
1066.57,0.0411
1067.0,0.041
1067.43,0.0411
1067.86,0.041
1068.29,0.041
1068.71,0.041
1069.14,0.041
1069.57,0.0411
1070.0,0.041
1070.43,0.041
1070.85,0.041
1071.28,0.041
1071.71,0.041
1072.14,0.041
1072.56,0.0411
1072.99,0.041
1073.42,0.0411
1073.85,0.0411
1074.27,0.0409
1074.7,0.041
1075.13,0.041
1075.56,0.041
1075.98,0.0409
1076.41,0.0409
1076.84,0.041
1077.27,0.0409
1077.69,0.0409
1078.12,0.0409
1078.55,0.041
1078.97,0.0409
1079.4,0.041
1079.83,0.041
1080.26,0.0409
1080.68,0.041
1081.11,0.041
1081.54,0.0409
1081.96,0.0409
1082.39,0.041
1082.82,0.0409
1083.25,0.0409
1083.67,0.0409
1084.1,0.0409
1084.53,0.0408
1084.95,0.041
1085.38,0.041
1085.81,0.0409
1086.23,0.0408
1086.66,0.0411
1087.09,0.0408
1087.51,0.0409
1087.94,0.0409
1088.37,0.041
1088.79,0.0409
1089.22,0.041
1089.65,0.041
1090.07,0.0409
1090.5,0.041
1090.93,0.0409
1091.35,0.0408
1091.78,0.0411
1092.21,0.041
1092.63,0.0408
1093.06,0.041
1093.48,0.0408
1093.91,0.041
1094.34,0.0407
1094.76,0.0408
1095.19,0.0408
1095.62,0.0407
1096.04,0.0409
1096.47,0.0409
1096.89,0.0408
1097.32,0.0409
1097.75,0.0409
1098.17,0.041
1098.6,0.0409
1099.02,0.0409
1099.45,0.0406
1099.88,0.0406
1100.3,0.0407
1100.73,0.041
1101.15,0.0409
1101.58,0.041
1102.01,0.0409
1102.43,0.0409
1102.86,0.0407
1103.28,0.041
1103.71,0.0408
1104.13,0.0408
1104.56,0.0407
1104.99,0.041
1105.41,0.0409
1105.84,0.0408
1106.26,0.041
1106.69,0.041
1107.11,0.0408
1107.54,0.041
1107.96,0.0408
1108.39,0.041
1108.81,0.0409
1109.24,0.0408
1109.67,0.0408
1110.09,0.0412
1110.52,0.0411
1110.94,0.0409
1111.37,0.0408
1111.79,0.0408
1112.22,0.041
1112.64,0.041
1113.07,0.0412
1113.49,0.041
1113.92,0.041
1114.34,0.0408
1114.77,0.041
1115.19,0.0411
1115.62,0.0409
1116.04,0.0411
1116.47,0.0406
1116.89,0.041
1117.32,0.0411
1117.74,0.0411
1118.17,0.0409
1118.59,0.0411
1119.02,0.0408
1119.44,0.0412
1119.87,0.0409
1120.29,0.0409
1120.71,0.0407
1121.14,0.0409
1121.56,0.041
1121.99,0.0411
1122.41,0.0411
1122.84,0.041
1123.26,0.0414
1123.69,0.0412
1124.11,0.0412
1124.54,0.0409
1124.96,0.041
1125.38,0.0412
1125.81,0.0416
1126.23,0.0405
1126.66,0.0412
1127.08,0.0413
1127.51,0.0409
1127.93,0.0409
1128.35,0.041
1128.78,0.0413
1129.2,0.0417
1129.63,0.0414
1130.05,0.0407
1130.47,0.0413
1130.9,0.0411
1131.32,0.0455
1131.75,0.0452
1132.17,0.0424
1132.59,0.0456
