Database of Origin,University of Winnipeg Spectrophotometer Facility
Sample Description,9.2. Magnetites: Maya spectra (PSF)
Date Added,2016-07-15 22:02:37.938127

Data ID,MAY_MAG_09          
Sample ID,MAG111
Mineral Name,Magnetite
Grain Size,<45 
Viewing Geometry,30 / 0
Resolution,0.42-0.48 
Material Class,Magnetite

Wavelength
198.73,0.0499
199.22,0.0451
199.7,0.0464
200.18,0.0516
200.66,0.0474
201.14,0.049
201.63,0.0491
202.11,0.0471
202.59,0.0465
203.07,0.0468
203.55,0.0492
204.03,0.0487
204.52,0.0477
205.0,0.0493
205.48,0.049
205.96,0.0473
206.44,0.0477
206.92,0.0492
207.41,0.0481
207.89,0.0478
208.37,0.0493
208.85,0.0498
209.33,0.0497
209.81,0.0468
210.29,0.0485
210.77,0.0506
211.26,0.0467
211.74,0.0477
212.22,0.0498
212.7,0.0495
213.18,0.0493
213.66,0.0475
214.14,0.0479
214.62,0.0472
215.1,0.0479
215.59,0.0483
216.07,0.0472
216.55,0.0485
217.03,0.0497
217.51,0.0469
217.99,0.048
218.47,0.0474
218.95,0.048
219.43,0.0469
219.91,0.0482
220.39,0.0479
220.87,0.0485
221.35,0.048
221.83,0.0482
222.32,0.0473
222.8,0.0477
223.28,0.0455
223.76,0.0484
224.24,0.0473
224.72,0.0479
225.2,0.0456
225.68,0.0491
226.16,0.0501
226.64,0.0498
227.12,0.0484
227.6,0.0503
228.08,0.0481
228.56,0.0488
229.04,0.0491
229.52,0.0497
230.0,0.0474
230.48,0.0467
230.96,0.0459
231.44,0.05
231.92,0.0479
232.4,0.0475
232.88,0.0471
233.36,0.0478
233.84,0.049
234.32,0.0464
234.8,0.0495
235.28,0.0491
235.76,0.05
236.24,0.0499
236.72,0.0487
237.2,0.049
237.68,0.0483
238.16,0.0497
238.64,0.0504
239.11,0.0473
239.59,0.0484
240.07,0.0479
240.55,0.05
241.03,0.0487
241.51,0.0467
241.99,0.0483
242.47,0.0462
242.95,0.0504
243.43,0.049
243.91,0.0481
244.39,0.0478
244.87,0.0491
245.34,0.0464
245.82,0.0488
246.3,0.0473
246.78,0.0476
247.26,0.0482
247.74,0.0475
248.22,0.0486
248.7,0.0479
249.18,0.0478
249.66,0.0459
250.13,0.0481
250.61,0.047
251.09,0.0484
251.57,0.0484
252.05,0.0478
252.53,0.0451
253.01,0.0476
253.48,0.0481
253.96,0.0468
254.44,0.05
254.92,0.0483
255.4,0.045
255.88,0.0491
256.36,0.0495
256.83,0.0474
257.31,0.0479
257.79,0.0487
258.27,0.0504
258.75,0.0477
259.22,0.0498
259.7,0.0465
260.18,0.0493
260.66,0.0477
261.14,0.0486
261.62,0.047
262.09,0.049
262.57,0.0477
263.05,0.0448
263.53,0.0476
264.01,0.0497
264.48,0.0477
264.96,0.0495
265.44,0.0478
265.92,0.0468
266.39,0.0479
266.87,0.0496
267.35,0.0473
267.83,0.0488
268.31,0.0467
268.78,0.0465
269.26,0.0456
269.74,0.0484
270.22,0.0461
270.69,0.0473
271.17,0.0462
271.65,0.0471
272.13,0.0488
272.6,0.0465
273.08,0.0484
273.56,0.0473
274.03,0.0468
274.51,0.0482
274.99,0.0467
275.47,0.0463
275.94,0.0483
276.42,0.0475
276.9,0.0471
277.37,0.0472
277.85,0.0476
278.33,0.0472
278.81,0.0458
279.28,0.0495
279.76,0.0468
280.24,0.0467
280.71,0.0478
281.19,0.0463
281.67,0.0487
282.14,0.0477
282.62,0.0488
283.1,0.0452
283.57,0.0481
284.05,0.047
284.53,0.0489
285.0,0.0486
285.48,0.0478
285.96,0.0488
286.43,0.0476
286.91,0.0477
287.39,0.0464
287.86,0.0475
288.34,0.0473
288.82,0.0238
289.29,0.0495
289.77,0.0477
290.24,0.0453
290.72,0.0481
291.2,0.0471
291.67,0.0507
292.15,0.0487
292.63,0.0495
293.1,0.0484
293.58,0.0476
294.05,0.0482
294.53,0.048
295.01,0.0461
295.48,0.0463
295.96,0.0466
296.43,0.0499
296.91,0.0471
297.38,0.0488
297.86,0.0486
298.34,0.0478
298.81,0.0456
299.29,0.0467
299.76,0.0486
300.24,0.048
300.71,0.0459
301.19,0.0482
301.67,0.0469
302.14,0.0474
302.62,0.0479
303.09,0.048
303.57,0.0488
304.04,0.0491
304.52,0.0482
304.99,0.0498
305.47,0.0493
305.94,0.0494
306.42,0.0485
306.89,0.0481
307.37,0.0466
307.85,0.0486
308.32,0.0482
308.8,0.0482
309.27,0.0486
309.75,0.0478
310.22,0.0485
310.7,0.0465
311.17,0.0475
311.65,0.0493
312.12,0.0497
312.6,0.049
313.07,0.049
313.54,0.048
314.02,0.0471
314.49,0.0489
314.97,0.0484
315.44,0.0492
315.92,0.0498
316.39,0.0497
316.87,0.0486
317.34,0.0485
317.82,0.0503
318.29,0.0489
318.77,0.0517
319.24,0.0493
319.71,0.0482
320.19,0.0491
320.66,0.0482
321.14,0.0486
321.61,0.0488
322.09,0.0481
322.56,0.0497
323.03,0.0475
323.51,0.0491
323.98,0.0488
324.46,0.0491
324.93,0.0493
325.41,0.0482
325.88,0.0491
326.35,0.0487
326.83,0.0497
327.3,0.0498
327.78,0.0499
328.25,0.0486
328.72,0.0511
329.2,0.05
329.67,0.0498
330.14,0.0489
330.62,0.0482
331.09,0.0503
331.57,0.0498
332.04,0.0487
332.51,0.0502
332.99,0.0498
333.46,0.0497
333.93,0.0516
334.41,0.0493
334.88,0.0504
335.35,0.0502
335.83,0.0486
336.3,0.0506
336.77,0.0509
337.25,0.0494
337.72,0.0494
338.19,0.05
338.67,0.0505
339.14,0.0497
339.61,0.0493
340.09,0.0509
340.56,0.051
341.03,0.0499
341.51,0.0504
341.98,0.0505
342.45,0.0503
342.92,0.0497
343.4,0.0506
343.87,0.0499
344.34,0.0503
344.82,0.0514
345.29,0.05
345.76,0.0509
346.23,0.0507
346.71,0.0507
347.18,0.0498
347.65,0.0497
348.13,0.05
348.6,0.051
349.07,0.0498
349.54,0.0519
350.02,0.0503
350.49,0.0507
350.96,0.0514
351.43,0.0513
351.91,0.0507
352.38,0.0513
352.85,0.0519
353.32,0.0511
353.79,0.0521
354.27,0.051
354.74,0.0515
355.21,0.0512
355.68,0.0513
356.16,0.0507
356.63,0.0514
357.1,0.0515
357.57,0.0518
358.04,0.0519
358.52,0.0516
358.99,0.0515
359.46,0.051
359.93,0.0509
360.4,0.0509
360.88,0.051
361.35,0.0505
361.82,0.0512
362.29,0.0519
362.76,0.0511
363.23,0.0521
363.71,0.05
364.18,0.0519
364.65,0.0511
365.12,0.0517
365.59,0.0517
366.06,0.0507
366.54,0.052
367.01,0.0515
367.48,0.0509
367.95,0.0514
368.42,0.0513
368.89,0.0521
369.36,0.0522
369.84,0.0512
370.31,0.0515
370.78,0.0518
371.25,0.051
371.72,0.0517
372.19,0.0516
372.66,0.0515
373.13,0.0518
373.6,0.0518
374.08,0.0514
374.55,0.0513
375.02,0.0518
375.49,0.0521
375.96,0.0522
376.43,0.0519
376.9,0.0518
377.37,0.0513
377.84,0.0515
378.31,0.0518
378.78,0.0524
379.25,0.0521
379.73,0.0522
380.2,0.0517
380.67,0.0518
381.14,0.052
381.61,0.0523
382.08,0.0515
382.55,0.0516
383.02,0.0518
383.49,0.052
383.96,0.0519
384.43,0.0522
384.9,0.0524
385.37,0.0524
385.84,0.0521
386.31,0.0522
386.78,0.0514
387.25,0.0523
387.72,0.0519
388.19,0.052
388.66,0.052
389.13,0.052
389.6,0.0516
390.07,0.0523
390.54,0.0526
391.01,0.0521
391.48,0.0519
391.95,0.0518
392.42,0.0525
392.89,0.0519
393.36,0.052
393.83,0.0522
394.3,0.0523
394.77,0.0523
395.24,0.0522
395.71,0.0524
396.18,0.0523
396.65,0.052
397.12,0.0521
397.59,0.0519
398.06,0.0518
398.53,0.052
399.0,0.0518
399.47,0.052
399.94,0.0521
400.41,0.0522
400.87,0.052
401.34,0.052
401.81,0.0518
402.28,0.0517
402.75,0.0518
403.22,0.0515
403.69,0.0517
404.16,0.052
404.63,0.0518
405.1,0.052
405.57,0.0518
406.04,0.0518
406.5,0.0518
406.97,0.0519
407.44,0.0519
407.91,0.0517
408.38,0.0519
408.85,0.0518
409.32,0.0521
409.79,0.0517
410.26,0.052
410.72,0.0517
411.19,0.0515
411.66,0.0519
412.13,0.052
412.6,0.0518
413.07,0.0518
413.54,0.0516
414.0,0.0519
414.47,0.0517
414.94,0.0519
415.41,0.0516
415.88,0.0516
416.35,0.0517
416.82,0.0519
417.28,0.0519
417.75,0.0516
418.22,0.0518
418.69,0.0518
419.16,0.0515
419.62,0.0517
420.09,0.0518
420.56,0.0518
421.03,0.0517
421.5,0.0517
421.97,0.0517
422.43,0.0517
422.9,0.0516
423.37,0.0519
423.84,0.0517
424.3,0.0515
424.77,0.0517
425.24,0.0516
425.71,0.0515
426.18,0.0517
426.64,0.0515
427.11,0.0516
427.58,0.0518
428.05,0.0518
428.51,0.0515
428.98,0.0514
429.45,0.0513
429.92,0.0516
430.38,0.0515
430.85,0.0514
431.32,0.0515
431.79,0.0516
432.25,0.0515
432.72,0.0514
433.19,0.0515
433.66,0.0513
434.12,0.0515
434.59,0.0514
435.06,0.0514
435.53,0.0512
435.99,0.0514
436.46,0.0514
436.93,0.0512
437.39,0.0512
437.86,0.0512
438.33,0.0512
438.79,0.051
439.26,0.0512
439.73,0.0513
440.2,0.0509
440.66,0.051
441.13,0.0511
441.6,0.0511
442.06,0.0511
442.53,0.051
443.0,0.051
443.46,0.051
443.93,0.0508
444.4,0.0511
444.86,0.051
445.33,0.0511
445.8,0.051
446.26,0.0507
446.73,0.0509
447.2,0.0509
447.66,0.0508
448.13,0.0509
448.59,0.0507
449.06,0.0508
449.53,0.0508
449.99,0.0508
450.46,0.0506
450.93,0.0506
451.39,0.0508
451.86,0.0507
452.32,0.0506
452.79,0.0506
453.26,0.0505
453.72,0.0505
454.19,0.0505
454.65,0.0504
455.12,0.0504
455.59,0.0505
456.05,0.0505
456.52,0.0503
456.98,0.0505
457.45,0.0505
457.92,0.0504
458.38,0.0504
458.85,0.0503
459.31,0.0503
459.78,0.0503
460.24,0.0504
460.71,0.0503
461.17,0.0502
461.64,0.0503
462.11,0.0503
462.57,0.0503
463.04,0.0503
463.5,0.0502
463.97,0.0504
464.43,0.0502
464.9,0.0501
465.36,0.0502
465.83,0.0502
466.29,0.0501
466.76,0.0501
467.22,0.0502
467.69,0.0501
468.16,0.0502
468.62,0.0501
469.09,0.0499
469.55,0.0501
470.02,0.0501
470.48,0.05
470.95,0.05
471.41,0.05
471.88,0.0502
472.34,0.0501
472.8,0.05
473.27,0.0502
473.73,0.0502
474.2,0.05
474.66,0.0502
475.13,0.0501
475.59,0.0502
476.06,0.05
476.52,0.0501
476.99,0.05
477.45,0.0501
477.92,0.05
478.38,0.0501
478.85,0.05
479.31,0.05
479.77,0.0499
480.24,0.05
480.7,0.0499
481.17,0.05
481.63,0.0499
482.1,0.05
482.56,0.0499
483.02,0.05
483.49,0.0499
483.95,0.05
484.42,0.05
484.88,0.0499
485.34,0.05
485.81,0.0499
486.27,0.05
486.74,0.0501
487.2,0.05
487.66,0.0499
488.13,0.05
488.59,0.05
489.06,0.05
489.52,0.0499
489.98,0.0499
490.45,0.0498
490.91,0.0499
491.38,0.0499
491.84,0.0498
492.3,0.0499
492.77,0.0499
493.23,0.0498
493.69,0.0498
494.16,0.0498
494.62,0.0497
495.08,0.0498
495.55,0.0498
496.01,0.0498
496.47,0.0498
496.94,0.0497
497.4,0.0498
497.86,0.0497
498.33,0.0498
498.79,0.0496
499.25,0.0498
499.72,0.0498
500.18,0.0498
500.64,0.0498
501.11,0.0497
501.57,0.0497
502.03,0.0499
502.5,0.0498
502.96,0.0498
503.42,0.0498
503.88,0.0497
504.35,0.0498
504.81,0.0497
505.27,0.0497
505.74,0.0496
506.2,0.0498
506.66,0.0497
507.12,0.0496
507.59,0.0496
508.05,0.0497
508.51,0.0495
508.97,0.0496
509.44,0.0496
509.9,0.0496
510.36,0.0496
510.82,0.0496
511.29,0.0495
511.75,0.0495
512.21,0.0495
512.67,0.0495
513.14,0.0495
513.6,0.0495
514.06,0.0495
514.52,0.0494
514.99,0.0495
515.45,0.0495
515.91,0.0495
516.37,0.0493
516.83,0.0495
517.3,0.0495
517.76,0.0495
518.22,0.0495
518.68,0.0494
519.14,0.0495
519.61,0.0495
520.07,0.0495
520.53,0.0494
520.99,0.0495
521.45,0.0495
521.91,0.0495
522.38,0.0494
522.84,0.0495
523.3,0.0494
523.76,0.0494
524.22,0.0494
524.68,0.0494
525.15,0.0493
525.61,0.0494
526.07,0.0493
526.53,0.0495
526.99,0.0494
527.45,0.0494
527.92,0.0493
528.38,0.0493
528.84,0.0493
529.3,0.0493
529.76,0.0494
530.22,0.0494
530.68,0.0494
531.14,0.0493
531.61,0.0494
532.07,0.0493
532.53,0.0493
532.99,0.0493
533.45,0.0492
533.91,0.0493
534.37,0.0493
534.83,0.0492
535.29,0.0492
535.75,0.0492
536.22,0.0492
536.68,0.0493
537.14,0.0493
537.6,0.0493
538.06,0.0493
538.52,0.0493
538.98,0.0492
539.44,0.0493
539.9,0.0491
540.36,0.0492
540.82,0.0493
541.28,0.0492
541.74,0.0493
542.2,0.0492
542.67,0.0493
543.13,0.0492
543.59,0.0492
544.05,0.0492
544.51,0.0492
544.97,0.0493
545.43,0.0492
545.89,0.0493
546.35,0.0493
546.81,0.0493
547.27,0.0493
547.73,0.0493
548.19,0.0493
548.65,0.0493
549.11,0.0493
549.57,0.0493
550.03,0.0493
550.49,0.0494
550.95,0.0493
551.41,0.0493
551.87,0.0494
552.33,0.0494
552.79,0.0493
553.25,0.0494
553.71,0.0493
554.17,0.0493
554.63,0.0493
555.09,0.0493
555.55,0.0494
556.01,0.0493
556.47,0.0494
556.93,0.0494
557.39,0.0493
557.85,0.0493
558.3,0.0493
558.76,0.0493
559.22,0.0493
559.68,0.0493
560.14,0.0493
560.6,0.0493
561.06,0.0493
561.52,0.0492
561.98,0.0493
562.44,0.0493
562.9,0.0492
563.36,0.0493
563.82,0.0493
564.28,0.0493
564.74,0.0494
565.19,0.0493
565.65,0.0493
566.11,0.0494
566.57,0.0493
567.03,0.0493
567.49,0.0493
567.95,0.0493
568.41,0.0493
568.87,0.0493
569.32,0.0493
569.78,0.0492
570.24,0.0493
570.7,0.0492
571.16,0.0493
571.62,0.0492
572.08,0.0493
572.54,0.0493
572.99,0.0493
573.45,0.0493
573.91,0.0493
574.37,0.0493
574.83,0.0492
575.29,0.0493
575.75,0.0492
576.2,0.0493
576.66,0.0492
577.12,0.0493
577.58,0.0493
578.04,0.0493
578.5,0.0494
578.95,0.0494
579.41,0.0494
579.87,0.0493
580.33,0.0494
580.79,0.0493
581.24,0.0494
581.7,0.0493
582.16,0.0493
582.62,0.0494
583.08,0.0494
583.53,0.0494
583.99,0.0494
584.45,0.0493
584.91,0.0494
585.37,0.0494
585.82,0.0494
586.28,0.0494
586.74,0.0494
587.2,0.0494
587.65,0.0494
588.11,0.0494
588.57,0.0494
589.03,0.0494
589.48,0.0495
589.94,0.0494
590.4,0.0494
590.86,0.0494
591.31,0.0493
591.77,0.0494
592.23,0.0495
592.69,0.0494
593.14,0.0494
593.6,0.0494
594.06,0.0494
594.52,0.0495
594.97,0.0494
595.43,0.0494
595.89,0.0494
596.34,0.0495
596.8,0.0495
597.26,0.0495
597.72,0.0495
598.17,0.0494
598.63,0.0495
599.09,0.0495
599.54,0.0494
600.0,0.0494
600.46,0.0494
600.91,0.0494
601.37,0.0494
601.83,0.0495
602.28,0.0494
602.74,0.0494
603.2,0.0494
603.66,0.0494
604.11,0.0493
604.57,0.0494
605.03,0.0494
605.48,0.0493
605.94,0.0493
606.39,0.0493
606.85,0.0493
607.31,0.0493
607.76,0.0493
608.22,0.0493
608.68,0.0493
609.13,0.0494
609.59,0.0493
610.05,0.0493
610.5,0.0493
610.96,0.0494
611.41,0.0494
611.87,0.0494
612.33,0.0493
612.78,0.0494
613.24,0.0494
613.7,0.0493
614.15,0.0493
614.61,0.0494
615.06,0.0494
615.52,0.0494
615.97,0.0494
616.43,0.0494
616.89,0.0494
617.34,0.0494
617.8,0.0494
618.25,0.0495
618.71,0.0495
619.17,0.0494
619.62,0.0495
620.08,0.0494
620.53,0.0495
620.99,0.0495
621.44,0.0495
621.9,0.0495
622.35,0.0495
622.81,0.0495
623.27,0.0495
623.72,0.0495
624.18,0.0495
624.63,0.0495
625.09,0.0496
625.54,0.0495
626.0,0.0495
626.45,0.0496
626.91,0.0495
627.36,0.0496
627.82,0.0496
628.27,0.0495
628.73,0.0496
629.18,0.0496
629.64,0.0496
630.09,0.0496
630.55,0.0496
631.0,0.0496
631.46,0.0496
631.91,0.0496
632.37,0.0496
632.82,0.0496
633.28,0.0496
633.73,0.0496
634.19,0.0496
634.64,0.0496
635.1,0.0495
635.55,0.0496
636.01,0.0496
636.46,0.0495
636.92,0.0495
637.37,0.0495
637.83,0.0495
638.28,0.0496
638.73,0.0495
639.19,0.0495
639.64,0.0495
640.1,0.0495
640.55,0.0495
641.01,0.0495
641.46,0.0495
641.92,0.0495
642.37,0.0495
642.82,0.0495
643.28,0.0495
643.73,0.0495
644.19,0.0495
644.64,0.0496
645.09,0.0496
645.55,0.0495
646.0,0.0496
646.46,0.0496
646.91,0.0496
647.36,0.0496
647.82,0.0496
648.27,0.0496
648.73,0.0496
649.18,0.0496
649.63,0.0496
650.09,0.0496
650.54,0.0496
651.0,0.0496
651.45,0.0496
651.9,0.0496
652.36,0.0497
652.81,0.0496
653.26,0.0496
653.72,0.0496
654.17,0.0496
654.62,0.0496
655.08,0.0495
655.53,0.0495
655.98,0.0495
656.44,0.0496
656.89,0.0496
657.34,0.0495
657.8,0.0496
658.25,0.0496
658.7,0.0495
659.16,0.0496
659.61,0.0496
660.06,0.0496
660.52,0.0496
660.97,0.0496
661.42,0.0496
661.88,0.0496
662.33,0.0496
662.78,0.0496
663.24,0.0496
663.69,0.0496
664.14,0.0496
664.59,0.0496
665.05,0.0496
665.5,0.0496
665.95,0.0496
666.41,0.0496
666.86,0.0496
667.31,0.0495
667.76,0.0495
668.22,0.0495
668.67,0.0495
669.12,0.0495
669.57,0.0495
670.03,0.0495
670.48,0.0495
670.93,0.0495
671.38,0.0496
671.84,0.0495
672.29,0.0496
672.74,0.0496
673.19,0.0495
673.65,0.0496
674.1,0.0496
674.55,0.0495
675.0,0.0496
675.46,0.0496
675.91,0.0496
676.36,0.0496
676.81,0.0496
677.26,0.0496
677.72,0.0496
678.17,0.0496
678.62,0.0496
679.07,0.0496
679.52,0.0495
679.98,0.0496
680.43,0.0496
680.88,0.0495
681.33,0.0496
681.78,0.0496
682.24,0.0496
682.69,0.0496
683.14,0.0496
683.59,0.0496
684.04,0.0495
684.49,0.0496
684.95,0.0496
685.4,0.0496
685.85,0.0496
686.3,0.0496
686.75,0.0495
687.2,0.0496
687.65,0.0496
688.11,0.0496
688.56,0.0496
689.01,0.0496
689.46,0.0496
689.91,0.0496
690.36,0.0496
690.81,0.0496
691.27,0.0496
691.72,0.0496
692.17,0.0496
692.62,0.0496
693.07,0.0496
693.52,0.0496
693.97,0.0496
694.42,0.0496
694.87,0.0496
695.32,0.0496
695.78,0.0496
696.23,0.0496
696.68,0.0495
697.13,0.0495
697.58,0.0495
698.03,0.0495
698.48,0.0495
698.93,0.0495
699.38,0.0494
699.83,0.0495
700.28,0.0495
700.73,0.0495
701.19,0.0494
701.64,0.0494
702.09,0.0494
702.54,0.0494
702.99,0.0494
703.44,0.0494
703.89,0.0493
704.34,0.0494
704.79,0.0494
705.24,0.0493
705.69,0.0493
706.14,0.0493
706.59,0.0493
707.04,0.0493
707.49,0.0493
707.94,0.0493
708.39,0.0492
708.84,0.0493
709.29,0.0493
709.74,0.0493
710.19,0.0493
710.64,0.0493
711.09,0.0493
711.54,0.0493
711.99,0.0493
712.44,0.0493
712.89,0.0493
713.34,0.0492
713.79,0.0492
714.24,0.0493
714.69,0.0492
715.14,0.0493
715.59,0.0492
716.04,0.0493
716.49,0.0492
716.94,0.0493
717.39,0.0492
717.84,0.0493
718.29,0.0493
718.74,0.0493
719.19,0.0493
719.64,0.0493
720.09,0.0492
720.53,0.0493
720.98,0.0492
721.43,0.0492
721.88,0.0492
722.33,0.0492
722.78,0.0492
723.23,0.0492
723.68,0.0492
724.13,0.0492
724.58,0.0492
725.03,0.0492
725.48,0.0492
725.93,0.0491
726.37,0.0492
726.82,0.0492
727.27,0.0491
727.72,0.0492
728.17,0.0491
728.62,0.0491
729.07,0.0491
729.52,0.0491
729.97,0.0491
730.41,0.0491
730.86,0.0491
731.31,0.0491
731.76,0.0491
732.21,0.0491
732.66,0.0491
733.11,0.049
733.56,0.049
734.0,0.049
734.45,0.0491
734.9,0.049
735.35,0.049
735.8,0.049
736.25,0.049
736.7,0.0491
737.14,0.0491
737.59,0.049
738.04,0.049
738.49,0.049
738.94,0.049
739.38,0.0489
739.83,0.0489
740.28,0.0489
740.73,0.0488
741.18,0.0489
741.63,0.0489
742.07,0.0489
742.52,0.0489
742.97,0.0489
743.42,0.0489
743.87,0.0488
744.31,0.0489
744.76,0.0488
745.21,0.0488
745.66,0.0488
746.11,0.0488
746.55,0.0488
747.0,0.0488
747.45,0.0488
747.9,0.0488
748.34,0.0487
748.79,0.0487
749.24,0.0487
749.69,0.0487
750.13,0.0487
750.58,0.0487
751.03,0.0487
751.48,0.0487
751.92,0.0487
752.37,0.0486
752.82,0.0487
753.27,0.0486
753.71,0.0486
754.16,0.0486
754.61,0.0486
755.06,0.0486
755.5,0.0486
755.95,0.0485
756.4,0.0486
756.84,0.0485
757.29,0.0486
757.74,0.0485
758.19,0.0485
758.63,0.0485
759.08,0.0485
759.53,0.0485
759.97,0.0485
760.42,0.0485
760.87,0.0484
761.31,0.0484
761.76,0.0485
762.21,0.0484
762.65,0.0485
763.1,0.0484
763.55,0.0484
764.0,0.0484
764.44,0.0484
764.89,0.0484
765.34,0.0484
765.78,0.0483
766.23,0.0483
766.67,0.0483
767.12,0.0483
767.57,0.0482
768.01,0.0482
768.46,0.0482
768.91,0.0482
769.35,0.0482
769.8,0.0482
770.25,0.0481
770.69,0.0481
771.14,0.0481
771.58,0.0481
772.03,0.048
772.48,0.048
772.92,0.048
773.37,0.048
773.82,0.048
774.26,0.048
774.71,0.0479
775.15,0.0479
775.6,0.0479
776.05,0.0479
776.49,0.0479
776.94,0.0479
777.38,0.0479
777.83,0.0478
778.28,0.0479
778.72,0.0478
779.17,0.0478
779.61,0.0478
780.06,0.0477
780.5,0.0478
780.95,0.0477
781.4,0.0477
781.84,0.0477
782.29,0.0477
782.73,0.0477
783.18,0.0477
783.62,0.0476
784.07,0.0476
784.51,0.0475
784.96,0.0476
785.4,0.0475
785.85,0.0475
786.3,0.0476
786.74,0.0476
787.19,0.0475
787.63,0.0475
788.08,0.0475
788.52,0.0475
788.97,0.0475
789.41,0.0475
789.86,0.0475
790.3,0.0474
790.75,0.0475
791.19,0.0475
791.64,0.0475
792.08,0.0474
792.53,0.0474
792.97,0.0474
793.42,0.0475
793.86,0.0474
794.31,0.0474
794.75,0.0473
795.2,0.0474
795.64,0.0473
796.09,0.0473
796.53,0.0473
796.97,0.0473
797.42,0.0473
797.86,0.0472
798.31,0.0472
798.75,0.0472
799.2,0.0473
799.64,0.0472
800.09,0.0471
800.53,0.0472
800.98,0.0472
801.42,0.0472
801.86,0.0471
802.31,0.0471
802.75,0.0471
803.2,0.0471
803.64,0.047
804.09,0.047
804.53,0.047
804.97,0.047
805.42,0.047
805.86,0.0469
806.31,0.0469
806.75,0.0469
807.19,0.0469
807.64,0.047
808.08,0.0469
808.53,0.0469
808.97,0.0469
809.41,0.0469
809.86,0.0469
810.3,0.0468
810.75,0.0468
811.19,0.0468
811.63,0.0468
812.08,0.0467
812.52,0.0467
812.96,0.0467
813.41,0.0467
813.85,0.0466
814.29,0.0466
814.74,0.0466
815.18,0.0466
815.63,0.0465
816.07,0.0465
816.51,0.0465
816.96,0.0465
817.4,0.0465
817.84,0.0465
818.29,0.0464
818.73,0.0465
819.17,0.0465
819.62,0.0464
820.06,0.0464
820.5,0.0464
820.95,0.0465
821.39,0.0464
821.83,0.0464
822.27,0.0464
822.72,0.0463
823.16,0.0463
823.6,0.0463
824.05,0.0463
824.49,0.0462
824.93,0.0463
825.38,0.0463
825.82,0.0462
826.26,0.0462
826.7,0.0461
827.15,0.0461
827.59,0.0461
828.03,0.0462
828.48,0.0461
828.92,0.0461
829.36,0.046
829.8,0.0461
830.25,0.0461
830.69,0.046
831.13,0.046
831.57,0.046
832.02,0.046
832.46,0.046
832.9,0.046
833.34,0.046
833.79,0.046
834.23,0.046
834.67,0.046
835.11,0.0459
835.55,0.0459
836.0,0.0458
836.44,0.0458
836.88,0.0459
837.32,0.0458
837.77,0.0458
838.21,0.0458
838.65,0.0458
839.09,0.0458
839.53,0.0458
839.98,0.0457
840.42,0.0458
840.86,0.0457
841.3,0.0456
841.74,0.0456
842.19,0.0456
842.63,0.0456
843.07,0.0456
843.51,0.0456
843.95,0.0456
844.39,0.0455
844.84,0.0455
845.28,0.0455
845.72,0.0455
846.16,0.0454
846.6,0.0455
847.04,0.0455
847.49,0.0455
847.93,0.0454
848.37,0.0454
848.81,0.0454
849.25,0.0454
849.69,0.0453
850.13,0.0454
850.58,0.0454
851.02,0.0453
851.46,0.0453
851.9,0.0453
852.34,0.0452
852.78,0.0452
853.22,0.0452
853.66,0.0452
854.11,0.0452
854.55,0.0451
854.99,0.0451
855.43,0.0452
855.87,0.0451
856.31,0.0451
856.75,0.045
857.19,0.045
857.63,0.045
858.07,0.0449
858.51,0.045
858.96,0.0449
859.4,0.0449
859.84,0.0449
860.28,0.0449
860.72,0.0449
861.16,0.0449
861.6,0.0449
862.04,0.0449
862.48,0.0449
862.92,0.0449
863.36,0.0448
863.8,0.0448
864.24,0.0448
864.68,0.0448
865.12,0.0448
865.56,0.0447
866.01,0.0448
866.45,0.0447
866.89,0.0447
867.33,0.0447
867.77,0.0447
868.21,0.0447
868.65,0.0447
869.09,0.0446
869.53,0.0446
869.97,0.0446
870.41,0.0446
870.85,0.0446
871.29,0.0445
871.73,0.0445
872.17,0.0445
872.61,0.0445
873.05,0.0444
873.49,0.0445
873.93,0.0445
874.37,0.0444
874.81,0.0445
875.25,0.0445
875.69,0.0444
876.13,0.0444
876.57,0.0444
877.01,0.0444
877.45,0.0444
877.88,0.0443
878.32,0.0444
878.76,0.0444
879.2,0.0443
879.64,0.0443
880.08,0.0443
880.52,0.0442
880.96,0.0442
881.4,0.0442
881.84,0.0442
882.28,0.0442
882.72,0.0442
883.16,0.0442
883.6,0.0441
884.04,0.0442
884.48,0.0441
884.92,0.0441
885.35,0.0441
885.79,0.0441
886.23,0.044
886.67,0.044
887.11,0.044
887.55,0.044
887.99,0.044
888.43,0.0439
888.87,0.0439
889.31,0.0439
889.75,0.0439
890.18,0.0439
890.62,0.0438
891.06,0.0438
891.5,0.0438
891.94,0.0438
892.38,0.0438
892.82,0.0437
893.26,0.0438
893.69,0.0437
894.13,0.0437
894.57,0.0436
895.01,0.0437
895.45,0.0436
895.89,0.0436
896.33,0.0436
896.76,0.0435
897.2,0.0435
897.64,0.0435
898.08,0.0434
898.52,0.0434
898.96,0.0434
899.39,0.0434
899.83,0.0434
900.27,0.0434
900.71,0.0433
901.15,0.0433
901.59,0.0434
902.02,0.0433
902.46,0.0433
902.9,0.0433
903.34,0.0432
903.78,0.0433
904.21,0.0432
904.65,0.0432
905.09,0.0432
905.53,0.0432
905.97,0.0432
906.4,0.0432
906.84,0.0432
907.28,0.0432
907.72,0.0431
908.15,0.0431
908.59,0.0431
909.03,0.0431
909.47,0.0431
909.91,0.0431
910.34,0.0431
910.78,0.0431
911.22,0.0431
911.66,0.0431
912.09,0.0431
912.53,0.0431
912.97,0.0431
913.41,0.043
913.84,0.043
914.28,0.043
914.72,0.043
915.16,0.0429
915.59,0.0429
916.03,0.043
916.47,0.0429
916.9,0.0429
917.34,0.043
917.78,0.0429
918.22,0.0429
918.65,0.0429
919.09,0.0429
919.53,0.0429
919.96,0.0429
920.4,0.0429
920.84,0.0429
921.28,0.0428
921.71,0.0428
922.15,0.0428
922.59,0.0427
923.02,0.0428
923.46,0.0428
923.9,0.0428
924.33,0.0428
924.77,0.0427
925.21,0.0427
925.64,0.0427
926.08,0.0427
926.52,0.0427
926.95,0.0426
927.39,0.0426
927.83,0.0426
928.26,0.0427
928.7,0.0426
929.14,0.0426
929.57,0.0426
930.01,0.0426
930.44,0.0426
930.88,0.0426
931.32,0.0426
931.75,0.0426
932.19,0.0426
932.63,0.0425
933.06,0.0425
933.5,0.0425
933.94,0.0424
934.37,0.0425
934.81,0.0425
935.24,0.0425
935.68,0.0424
936.12,0.0425
936.55,0.0425
936.99,0.0425
937.42,0.0425
937.86,0.0424
938.3,0.0424
938.73,0.0424
939.17,0.0424
939.6,0.0424
940.04,0.0424
940.47,0.0423
940.91,0.0423
941.35,0.0423
941.78,0.0423
942.22,0.0422
942.65,0.0422
943.09,0.0422
943.52,0.0422
943.96,0.0422
944.4,0.0421
944.83,0.0422
945.27,0.0422
945.7,0.0422
946.14,0.0422
946.57,0.0422
947.01,0.0422
947.44,0.0421
947.88,0.0421
948.31,0.0421
948.75,0.0421
949.18,0.0421
949.62,0.0421
950.05,0.042
950.49,0.042
950.92,0.042
951.36,0.042
951.79,0.042
952.23,0.042
952.67,0.042
953.1,0.042
953.53,0.042
953.97,0.042
954.4,0.042
954.84,0.042
955.27,0.0419
955.71,0.042
956.14,0.042
956.58,0.042
957.01,0.042
957.45,0.042
957.88,0.0419
958.32,0.0419
958.75,0.0419
959.19,0.0419
959.62,0.0419
960.06,0.0419
960.49,0.0419
960.93,0.0419
961.36,0.0419
961.79,0.0418
962.23,0.0418
962.66,0.0418
963.1,0.0418
963.53,0.0418
963.97,0.0418
964.4,0.0418
964.83,0.0418
965.27,0.0418
965.7,0.0417
966.14,0.0417
966.57,0.0417
967.01,0.0416
967.44,0.0417
967.87,0.0417
968.31,0.0416
968.74,0.0417
969.18,0.0416
969.61,0.0416
970.04,0.0416
970.48,0.0415
970.91,0.0415
971.35,0.0416
971.78,0.0415
972.21,0.0415
972.65,0.0415
973.08,0.0415
973.51,0.0415
973.95,0.0414
974.38,0.0415
974.82,0.0415
975.25,0.0414
975.68,0.0414
976.12,0.0414
976.55,0.0414
976.98,0.0414
977.42,0.0414
977.85,0.0415
978.28,0.0414
978.72,0.0414
979.15,0.0414
979.58,0.0414
980.02,0.0414
980.45,0.0413
980.88,0.0414
981.32,0.0413
981.75,0.0414
982.18,0.0413
982.62,0.0413
983.05,0.0413
983.48,0.0413
983.92,0.0413
984.35,0.0412
984.78,0.0412
985.21,0.0412
985.65,0.0412
986.08,0.0413
986.51,0.0412
986.95,0.0413
987.38,0.0413
987.81,0.0412
988.24,0.0412
988.68,0.0412
989.11,0.0412
989.54,0.0412
989.98,0.0412
990.41,0.0411
990.84,0.0411
991.27,0.0412
991.71,0.0412
992.14,0.0411
992.57,0.0411
993.0,0.0411
993.44,0.0411
993.87,0.0411
994.3,0.0411
994.73,0.041
995.17,0.041
995.6,0.041
996.03,0.041
996.46,0.041
996.9,0.041
997.33,0.041
997.76,0.041
998.19,0.0409
998.62,0.041
999.06,0.0409
999.49,0.0409
999.92,0.041
1000.35,0.041
1000.78,0.0409
1001.22,0.0409
1001.65,0.0409
1002.08,0.0409
1002.51,0.0409
1002.94,0.0409
1003.38,0.0408
1003.81,0.0408
1004.24,0.0408
1004.67,0.0409
1005.1,0.0408
1005.54,0.0408
1005.97,0.0408
1006.4,0.0409
1006.83,0.0408
1007.26,0.0408
1007.69,0.0408
1008.13,0.0408
1008.56,0.0407
1008.99,0.0408
1009.42,0.0408
1009.85,0.0407
1010.28,0.0408
1010.71,0.0407
1011.15,0.0407
1011.58,0.0408
1012.01,0.0407
1012.44,0.0408
1012.87,0.0407
1013.3,0.0407
1013.73,0.0407
1014.17,0.0407
1014.6,0.0407
1015.03,0.0407
1015.46,0.0407
1015.89,0.0406
1016.32,0.0407
1016.75,0.0407
1017.18,0.0407
1017.61,0.0407
1018.04,0.0407
1018.48,0.0407
1018.91,0.0407
1019.34,0.0406
1019.77,0.0406
1020.2,0.0406
1020.63,0.0407
1021.06,0.0405
1021.49,0.0406
1021.92,0.0406
1022.35,0.0406
1022.78,0.0406
1023.21,0.0406
1023.65,0.0406
1024.08,0.0406
1024.51,0.0406
1024.94,0.0406
1025.37,0.0406
1025.8,0.0406
1026.23,0.0406
1026.66,0.0405
1027.09,0.0405
1027.52,0.0405
1027.95,0.0405
1028.38,0.0405
1028.81,0.0406
1029.24,0.0405
1029.67,0.0405
1030.1,0.0404
1030.53,0.0404
1030.96,0.0405
1031.39,0.0404
1031.82,0.0405
1032.25,0.0405
1032.68,0.0405
1033.11,0.0405
1033.54,0.0405
1033.97,0.0405
1034.4,0.0404
1034.83,0.0404
1035.26,0.0404
1035.69,0.0405
1036.12,0.0405
1036.55,0.0404
1036.98,0.0403
1037.41,0.0405
1037.84,0.0405
1038.27,0.0404
1038.7,0.0404
1039.13,0.0405
1039.56,0.0403
1039.99,0.0403
1040.42,0.0404
1040.85,0.0404
1041.28,0.0404
1041.71,0.0404
1042.14,0.0403
1042.57,0.0403
1043.0,0.0403
1043.43,0.0404
1043.85,0.0404
1044.28,0.0404
1044.71,0.0404
1045.14,0.0404
1045.57,0.0403
1046.0,0.0404
1046.43,0.0403
1046.86,0.0404
1047.29,0.0403
1047.72,0.0404
1048.15,0.0404
1048.58,0.0403
1049.01,0.0404
1049.43,0.0404
1049.86,0.0403
1050.29,0.0403
1050.72,0.0403
1051.15,0.0404
1051.58,0.0403
1052.01,0.0404
1052.44,0.0403
1052.87,0.0403
1053.29,0.0404
1053.72,0.0403
1054.15,0.0403
1054.58,0.0403
1055.01,0.0403
1055.44,0.0403
1055.87,0.0403
1056.3,0.0403
1056.72,0.0403
1057.15,0.0403
1057.58,0.0403
1058.01,0.0403
1058.44,0.0404
1058.87,0.0404
1059.3,0.0403
1059.72,0.0403
1060.15,0.0403
1060.58,0.0404
1061.01,0.0403
1061.44,0.0402
1061.87,0.0404
1062.29,0.0404
1062.72,0.0403
1063.15,0.0404
1063.58,0.0404
1064.01,0.0404
1064.43,0.0403
1064.86,0.0403
1065.29,0.0404
1065.72,0.0403
1066.15,0.0403
1066.57,0.0405
1067.0,0.0404
1067.43,0.0404
1067.86,0.0404
1068.29,0.0403
1068.71,0.0404
1069.14,0.0404
1069.57,0.0403
1070.0,0.0404
1070.43,0.0403
1070.85,0.0404
1071.28,0.0403
1071.71,0.0405
1072.14,0.0404
1072.56,0.0404
1072.99,0.0404
1073.42,0.0405
1073.85,0.0405
1074.27,0.0403
1074.7,0.0403
1075.13,0.0403
1075.56,0.0404
1075.98,0.0404
1076.41,0.0403
1076.84,0.0405
1077.27,0.0403
1077.69,0.0404
1078.12,0.0402
1078.55,0.0403
1078.97,0.0404
1079.4,0.0404
1079.83,0.0404
1080.26,0.0404
1080.68,0.0403
1081.11,0.0403
1081.54,0.0403
1081.96,0.0403
1082.39,0.0404
1082.82,0.0404
1083.25,0.0404
1083.67,0.0403
1084.1,0.0402
1084.53,0.0402
1084.95,0.0404
1085.38,0.0403
1085.81,0.0404
1086.23,0.0403
1086.66,0.0403
1087.09,0.0402
1087.51,0.0402
1087.94,0.0403
1088.37,0.0403
1088.79,0.0403
1089.22,0.0402
1089.65,0.0404
1090.07,0.0402
1090.5,0.0403
1090.93,0.0403
1091.35,0.0403
1091.78,0.0404
1092.21,0.0404
1092.63,0.0403
1093.06,0.0403
1093.48,0.0402
1093.91,0.0403
1094.34,0.0403
1094.76,0.0403
1095.19,0.0402
1095.62,0.0402
1096.04,0.0404
1096.47,0.0406
1096.89,0.0402
1097.32,0.0403
1097.75,0.0402
1098.17,0.0404
1098.6,0.0402
1099.02,0.0403
1099.45,0.0403
1099.88,0.04
1100.3,0.0401
1100.73,0.0403
1101.15,0.0404
1101.58,0.0403
1102.01,0.0402
1102.43,0.0403
1102.86,0.0404
1103.28,0.0404
1103.71,0.0401
1104.13,0.0402
1104.56,0.0404
1104.99,0.0405
1105.41,0.0406
1105.84,0.0402
1106.26,0.0407
1106.69,0.0402
1107.11,0.0402
1107.54,0.0404
1107.96,0.0402
1108.39,0.0404
1108.81,0.0404
1109.24,0.0404
1109.67,0.0405
1110.09,0.0405
1110.52,0.0403
1110.94,0.0403
1111.37,0.0402
1111.79,0.0404
1112.22,0.0404
1112.64,0.0404
1113.07,0.0404
1113.49,0.0404
1113.92,0.0404
1114.34,0.0405
1114.77,0.0403
1115.19,0.0404
1115.62,0.0404
1116.04,0.0404
1116.47,0.0403
1116.89,0.0406
1117.32,0.0406
1117.74,0.0402
1118.17,0.0406
1118.59,0.0405
1119.02,0.0405
1119.44,0.0403
1119.87,0.0405
1120.29,0.0406
1120.71,0.0404
1121.14,0.0404
1121.56,0.0405
1121.99,0.0405
1122.41,0.0406
1122.84,0.0405
1123.26,0.0412
1123.69,0.0405
1124.11,0.0408
1124.54,0.0408
1124.96,0.0408
1125.38,0.0406
1125.81,0.0411
1126.23,0.0405
1126.66,0.0407
1127.08,0.041
1127.51,0.0413
1127.93,0.0407
1128.35,0.0407
1128.78,0.0404
1129.2,0.0413
1129.63,0.0409
1130.05,0.0405
1130.47,0.041
1130.9,0.0416
1131.32,0.0481
1131.75,0.0452
1132.17,0.0439
1132.59,0.0466
