Database of Origin,University of Winnipeg Spectrophotometer Facility
Sample Description,9.2. Magnetites: Maya spectra (PSF)
Date Added,2016-07-15 22:02:38.093012

Data ID,MAY_MAG_18          
Sample ID,MAG120
Mineral Name,Magnetite
Grain Size,<45 
Viewing Geometry,30 / 0
Resolution,0.42-0.48 
Material Class,Magnetite

Wavelength
198.73,0.0533
199.22,0.0517
199.7,0.0575
200.18,0.0586
200.66,0.0531
201.14,0.0548
201.63,0.0566
202.11,0.0539
202.59,0.054
203.07,0.0545
203.55,0.0556
204.03,0.0567
204.52,0.054
205.0,0.0546
205.48,0.0558
205.96,0.0552
206.44,0.0562
206.92,0.0545
207.41,0.053
207.89,0.0561
208.37,0.0549
208.85,0.0561
209.33,0.0572
209.81,0.0544
210.29,0.0561
210.77,0.0563
211.26,0.0547
211.74,0.0536
212.22,0.0559
212.7,0.0557
213.18,0.0552
213.66,0.0552
214.14,0.0534
214.62,0.0565
215.1,0.0549
215.59,0.0542
216.07,0.0548
216.55,0.0568
217.03,0.0546
217.51,0.053
217.99,0.0543
218.47,0.053
218.95,0.055
219.43,0.0549
219.91,0.0544
220.39,0.0535
220.87,0.054
221.35,0.0548
221.83,0.0542
222.32,0.053
222.8,0.0538
223.28,0.0514
223.76,0.0549
224.24,0.0537
224.72,0.0542
225.2,0.0539
225.68,0.0537
226.16,0.0554
226.64,0.0552
227.12,0.0538
227.6,0.0555
228.08,0.0528
228.56,0.055
229.04,0.0538
229.52,0.0541
230.0,0.0527
230.48,0.0521
230.96,0.0549
231.44,0.0564
231.92,0.0543
232.4,0.0551
232.88,0.054
233.36,0.0545
233.84,0.0552
234.32,0.0539
234.8,0.0548
235.28,0.0541
235.76,0.054
236.24,0.0556
236.72,0.0552
237.2,0.0544
237.68,0.0555
238.16,0.0553
238.64,0.0562
239.11,0.0542
239.59,0.0573
240.07,0.0546
240.55,0.058
241.03,0.0543
241.51,0.0529
241.99,0.0531
242.47,0.0536
242.95,0.0549
243.43,0.0561
243.91,0.0516
244.39,0.0548
244.87,0.0549
245.34,0.0538
245.82,0.0557
246.3,0.0515
246.78,0.0545
247.26,0.0546
247.74,0.054
248.22,0.0525
248.7,0.0543
249.18,0.0533
249.66,0.0534
250.13,0.054
250.61,0.0542
251.09,0.057
251.57,0.0546
252.05,0.054
252.53,0.0525
253.01,0.0525
253.48,0.0546
253.96,0.0536
254.44,0.0543
254.92,0.0542
255.4,0.0513
255.88,0.0536
256.36,0.0552
256.83,0.0532
257.31,0.0534
257.79,0.0541
258.27,0.0541
258.75,0.0529
259.22,0.0547
259.7,0.0525
260.18,0.0545
260.66,0.0526
261.14,0.0549
261.62,0.055
262.09,0.054
262.57,0.0552
263.05,0.0514
263.53,0.0552
264.01,0.0537
264.48,0.0542
264.96,0.0539
265.44,0.0539
265.92,0.0533
266.39,0.0547
266.87,0.0535
267.35,0.0555
267.83,0.0551
268.31,0.0532
268.78,0.0554
269.26,0.052
269.74,0.0533
270.22,0.0533
270.69,0.0531
271.17,0.0531
271.65,0.0544
272.13,0.0558
272.6,0.0531
273.08,0.0524
273.56,0.0531
274.03,0.0527
274.51,0.0542
274.99,0.0524
275.47,0.0512
275.94,0.0531
276.42,0.0549
276.9,0.0535
277.37,0.0543
277.85,0.0537
278.33,0.0527
278.81,0.0518
279.28,0.057
279.76,0.0542
280.24,0.052
280.71,0.0525
281.19,0.0505
281.67,0.0528
282.14,0.0533
282.62,0.0548
283.1,0.0504
283.57,0.0537
284.05,0.0511
284.53,0.0523
285.0,0.0532
285.48,0.0503
285.96,0.0522
286.43,0.0515
286.91,0.0528
287.39,0.0525
287.86,0.0517
288.34,0.0506
288.82,0.0375
289.29,0.0524
289.77,0.0526
290.24,0.0515
290.72,0.0516
291.2,0.0518
291.67,0.0544
292.15,0.0516
292.63,0.0531
293.1,0.0532
293.58,0.0526
294.05,0.0536
294.53,0.0533
295.01,0.0505
295.48,0.0498
295.96,0.0534
296.43,0.0537
296.91,0.0501
297.38,0.0505
297.86,0.0515
298.34,0.0523
298.81,0.0494
299.29,0.0499
299.76,0.0521
300.24,0.0499
300.71,0.049
301.19,0.0506
301.67,0.0511
302.14,0.0501
302.62,0.0508
303.09,0.0496
303.57,0.0512
304.04,0.0516
304.52,0.0513
304.99,0.0523
305.47,0.0505
305.94,0.0542
306.42,0.0507
306.89,0.0512
307.37,0.0491
307.85,0.0513
308.32,0.0497
308.8,0.0505
309.27,0.0502
309.75,0.0497
310.22,0.0501
310.7,0.0493
311.17,0.0499
311.65,0.0516
312.12,0.0507
312.6,0.0497
313.07,0.0493
313.54,0.0492
314.02,0.0487
314.49,0.0508
314.97,0.0504
315.44,0.0504
315.92,0.0497
316.39,0.0512
316.87,0.0509
317.34,0.0486
317.82,0.0494
318.29,0.0495
318.77,0.0513
319.24,0.0493
319.71,0.0483
320.19,0.0489
320.66,0.0505
321.14,0.0496
321.61,0.05
322.09,0.0483
322.56,0.0482
323.03,0.0483
323.51,0.0495
323.98,0.0489
324.46,0.0499
324.93,0.0498
325.41,0.0468
325.88,0.0508
326.35,0.0491
326.83,0.0499
327.3,0.0484
327.78,0.0488
328.25,0.0482
328.72,0.0504
329.2,0.0486
329.67,0.049
330.14,0.0475
330.62,0.0477
331.09,0.0477
331.57,0.0482
332.04,0.0474
332.51,0.0484
332.99,0.0474
333.46,0.0479
333.93,0.0476
334.41,0.0477
334.88,0.049
335.35,0.0481
335.83,0.0466
336.3,0.0498
336.77,0.0492
337.25,0.049
337.72,0.048
338.19,0.0485
338.67,0.0469
339.14,0.0465
339.61,0.0459
340.09,0.0474
340.56,0.0466
341.03,0.0471
341.51,0.047
341.98,0.0475
342.45,0.0468
342.92,0.0458
343.4,0.0466
343.87,0.0456
344.34,0.046
344.82,0.0474
345.29,0.0468
345.76,0.0467
346.23,0.0468
346.71,0.0466
347.18,0.0455
347.65,0.0462
348.13,0.0461
348.6,0.046
349.07,0.0462
349.54,0.0458
350.02,0.0463
350.49,0.0461
350.96,0.0458
351.43,0.046
351.91,0.0449
352.38,0.0459
352.85,0.0468
353.32,0.0454
353.79,0.0468
354.27,0.0456
354.74,0.0463
355.21,0.0451
355.68,0.0449
356.16,0.0451
356.63,0.0461
357.1,0.0462
357.57,0.0461
358.04,0.0454
358.52,0.0467
358.99,0.0454
359.46,0.0457
359.93,0.0455
360.4,0.0449
360.88,0.0455
361.35,0.0449
361.82,0.0454
362.29,0.0454
362.76,0.0454
363.23,0.0458
363.71,0.0452
364.18,0.0457
364.65,0.0449
365.12,0.0457
365.59,0.0449
366.06,0.0442
366.54,0.0448
367.01,0.0449
367.48,0.0446
367.95,0.0446
368.42,0.0449
368.89,0.0455
369.36,0.0447
369.84,0.0446
370.31,0.045
370.78,0.0447
371.25,0.0436
371.72,0.0449
372.19,0.0451
372.66,0.0441
373.13,0.0442
373.6,0.0448
374.08,0.0443
374.55,0.0442
375.02,0.0446
375.49,0.0447
375.96,0.0446
376.43,0.0442
376.9,0.0443
377.37,0.0442
377.84,0.0442
378.31,0.044
378.78,0.0447
379.25,0.0447
379.73,0.0448
380.2,0.0442
380.67,0.0437
381.14,0.0438
381.61,0.0441
382.08,0.0437
382.55,0.0439
383.02,0.0443
383.49,0.0442
383.96,0.0441
384.43,0.0441
384.9,0.0441
385.37,0.0444
385.84,0.0436
386.31,0.044
386.78,0.0439
387.25,0.0442
387.72,0.0433
388.19,0.0442
388.66,0.0439
389.13,0.044
389.6,0.0438
390.07,0.0437
390.54,0.0442
391.01,0.0438
391.48,0.0438
391.95,0.0438
392.42,0.0448
392.89,0.0439
393.36,0.0439
393.83,0.0438
394.3,0.0438
394.77,0.044
395.24,0.0436
395.71,0.0442
396.18,0.0441
396.65,0.0438
397.12,0.0439
397.59,0.0435
398.06,0.0437
398.53,0.0436
399.0,0.0441
399.47,0.0437
399.94,0.0433
400.41,0.0435
400.87,0.0436
401.34,0.0436
401.81,0.0436
402.28,0.0434
402.75,0.0436
403.22,0.0434
403.69,0.0435
404.16,0.0438
404.63,0.0438
405.1,0.0439
405.57,0.0432
406.04,0.0433
406.5,0.0435
406.97,0.0435
407.44,0.0434
407.91,0.0434
408.38,0.044
408.85,0.0433
409.32,0.044
409.79,0.0435
410.26,0.0435
410.72,0.0434
411.19,0.0434
411.66,0.0432
412.13,0.0437
412.6,0.0432
413.07,0.0435
413.54,0.0433
414.0,0.0434
414.47,0.0438
414.94,0.0435
415.41,0.0435
415.88,0.0433
416.35,0.0435
416.82,0.0434
417.28,0.0434
417.75,0.0434
418.22,0.0438
418.69,0.0436
419.16,0.0435
419.62,0.0436
420.09,0.0435
420.56,0.0437
421.03,0.0435
421.5,0.0436
421.97,0.0436
422.43,0.0435
422.9,0.0433
423.37,0.0438
423.84,0.0434
424.3,0.0435
424.77,0.0438
425.24,0.0436
425.71,0.0436
426.18,0.0438
426.64,0.0439
427.11,0.0438
427.58,0.0439
428.05,0.0438
428.51,0.044
428.98,0.0439
429.45,0.0439
429.92,0.0439
430.38,0.0439
430.85,0.0438
431.32,0.0439
431.79,0.0441
432.25,0.0441
432.72,0.044
433.19,0.0439
433.66,0.044
434.12,0.0441
434.59,0.0442
435.06,0.0441
435.53,0.0444
435.99,0.0442
436.46,0.0442
436.93,0.0443
437.39,0.0444
437.86,0.0443
438.33,0.0444
438.79,0.0442
439.26,0.0443
439.73,0.0445
440.2,0.0442
440.66,0.0446
441.13,0.0444
441.6,0.0444
442.06,0.0445
442.53,0.0446
443.0,0.0446
443.46,0.0446
443.93,0.0445
444.4,0.0447
444.86,0.0447
445.33,0.0446
445.8,0.0446
446.26,0.0447
446.73,0.0445
447.2,0.0447
447.66,0.0448
448.13,0.0447
448.59,0.0447
449.06,0.0446
449.53,0.0448
449.99,0.0446
450.46,0.0447
450.93,0.0446
451.39,0.0448
451.86,0.0446
452.32,0.0447
452.79,0.0446
453.26,0.0446
453.72,0.0446
454.19,0.0446
454.65,0.0447
455.12,0.0446
455.59,0.0446
456.05,0.0446
456.52,0.0446
456.98,0.0446
457.45,0.0445
457.92,0.0445
458.38,0.0447
458.85,0.0444
459.31,0.0446
459.78,0.0445
460.24,0.0443
460.71,0.0443
461.17,0.0444
461.64,0.0443
462.11,0.0442
462.57,0.0443
463.04,0.0443
463.5,0.0442
463.97,0.0443
464.43,0.0442
464.9,0.0443
465.36,0.0441
465.83,0.0441
466.29,0.0441
466.76,0.0442
467.22,0.0441
467.69,0.0441
468.16,0.0442
468.62,0.0441
469.09,0.0442
469.55,0.044
470.02,0.0441
470.48,0.0442
470.95,0.0441
471.41,0.0441
471.88,0.0441
472.34,0.0441
472.8,0.0442
473.27,0.0441
473.73,0.0441
474.2,0.0442
474.66,0.0442
475.13,0.0441
475.59,0.0442
476.06,0.0441
476.52,0.0442
476.99,0.0441
477.45,0.0441
477.92,0.0443
478.38,0.0442
478.85,0.0441
479.31,0.0442
479.77,0.0442
480.24,0.0442
480.7,0.0442
481.17,0.0442
481.63,0.0443
482.1,0.0442
482.56,0.0443
483.02,0.0443
483.49,0.0442
483.95,0.0442
484.42,0.0444
484.88,0.0443
485.34,0.0444
485.81,0.0442
486.27,0.0443
486.74,0.0444
487.2,0.0443
487.66,0.0444
488.13,0.0444
488.59,0.0444
489.06,0.0445
489.52,0.0444
489.98,0.0445
490.45,0.0444
490.91,0.0445
491.38,0.0445
491.84,0.0446
492.3,0.0446
492.77,0.0446
493.23,0.0446
493.69,0.0447
494.16,0.0446
494.62,0.0447
495.08,0.0446
495.55,0.0447
496.01,0.0447
496.47,0.0446
496.94,0.0447
497.4,0.0447
497.86,0.0448
498.33,0.0447
498.79,0.0448
499.25,0.045
499.72,0.0449
500.18,0.0449
500.64,0.045
501.11,0.045
501.57,0.045
502.03,0.045
502.5,0.0452
502.96,0.0451
503.42,0.0452
503.88,0.0452
504.35,0.0452
504.81,0.0452
505.27,0.0452
505.74,0.0453
506.2,0.0453
506.66,0.0454
507.12,0.0454
507.59,0.0454
508.05,0.0455
508.51,0.0454
508.97,0.0455
509.44,0.0455
509.9,0.0456
510.36,0.0457
510.82,0.0457
511.29,0.0456
511.75,0.0457
512.21,0.0457
512.67,0.0458
513.14,0.0457
513.6,0.0459
514.06,0.0459
514.52,0.0459
514.99,0.046
515.45,0.046
515.91,0.046
516.37,0.0459
516.83,0.046
517.3,0.0461
517.76,0.0461
518.22,0.0461
518.68,0.0462
519.14,0.0462
519.61,0.0463
520.07,0.0463
520.53,0.0463
520.99,0.0464
521.45,0.0464
521.91,0.0464
522.38,0.0465
522.84,0.0466
523.3,0.0466
523.76,0.0467
524.22,0.0467
524.68,0.0467
525.15,0.0467
525.61,0.0468
526.07,0.0469
526.53,0.0468
526.99,0.0469
527.45,0.047
527.92,0.047
528.38,0.047
528.84,0.0471
529.3,0.0471
529.76,0.0472
530.22,0.0473
530.68,0.0474
531.14,0.0474
531.61,0.0474
532.07,0.0475
532.53,0.0476
532.99,0.0475
533.45,0.0476
533.91,0.0476
534.37,0.0476
534.83,0.0478
535.29,0.0478
535.75,0.0478
536.22,0.0478
536.68,0.048
537.14,0.048
537.6,0.0481
538.06,0.0481
538.52,0.0481
538.98,0.0481
539.44,0.0481
539.9,0.0482
540.36,0.0483
540.82,0.0483
541.28,0.0483
541.74,0.0484
542.2,0.0484
542.67,0.0484
543.13,0.0485
543.59,0.0485
544.05,0.0486
544.51,0.0487
544.97,0.0487
545.43,0.0487
545.89,0.0487
546.35,0.0488
546.81,0.0488
547.27,0.049
547.73,0.0489
548.19,0.049
548.65,0.049
549.11,0.0491
549.57,0.0491
550.03,0.0492
550.49,0.0492
550.95,0.0492
551.41,0.0493
551.87,0.0493
552.33,0.0493
552.79,0.0493
553.25,0.0494
553.71,0.0495
554.17,0.0494
554.63,0.0495
555.09,0.0496
555.55,0.0496
556.01,0.0496
556.47,0.0498
556.93,0.0497
557.39,0.0498
557.85,0.0498
558.3,0.0498
558.76,0.0498
559.22,0.0498
559.68,0.0499
560.14,0.0499
560.6,0.05
561.06,0.0499
561.52,0.0499
561.98,0.05
562.44,0.0501
562.9,0.05
563.36,0.0502
563.82,0.0501
564.28,0.0501
564.74,0.0502
565.19,0.0502
565.65,0.0502
566.11,0.0503
566.57,0.0502
567.03,0.0503
567.49,0.0503
567.95,0.0504
568.41,0.0503
568.87,0.0505
569.32,0.0504
569.78,0.0505
570.24,0.0504
570.7,0.0505
571.16,0.0506
571.62,0.0506
572.08,0.0506
572.54,0.0507
572.99,0.0506
573.45,0.0507
573.91,0.0507
574.37,0.0507
574.83,0.0507
575.29,0.0507
575.75,0.0508
576.2,0.0508
576.66,0.0508
577.12,0.0508
577.58,0.0507
578.04,0.0508
578.5,0.0508
578.95,0.0508
579.41,0.0508
579.87,0.0509
580.33,0.0509
580.79,0.051
581.24,0.0509
581.7,0.051
582.16,0.051
582.62,0.051
583.08,0.0511
583.53,0.0511
583.99,0.0511
584.45,0.0511
584.91,0.0511
585.37,0.0512
585.82,0.0511
586.28,0.0512
586.74,0.0512
587.2,0.0512
587.65,0.0511
588.11,0.0512
588.57,0.0512
589.03,0.0512
589.48,0.0512
589.94,0.0512
590.4,0.0512
590.86,0.0512
591.31,0.0511
591.77,0.0512
592.23,0.0512
592.69,0.0512
593.14,0.0513
593.6,0.0513
594.06,0.0512
594.52,0.0512
594.97,0.0512
595.43,0.0513
595.89,0.0513
596.34,0.0513
596.8,0.0513
597.26,0.0513
597.72,0.0513
598.17,0.0513
598.63,0.0513
599.09,0.0513
599.54,0.0513
600.0,0.0513
600.46,0.0514
600.91,0.0513
601.37,0.0514
601.83,0.0514
602.28,0.0513
602.74,0.0513
603.2,0.0513
603.66,0.0513
604.11,0.0513
604.57,0.0513
605.03,0.0514
605.48,0.0514
605.94,0.0513
606.39,0.0513
606.85,0.0514
607.31,0.0514
607.76,0.0514
608.22,0.0514
608.68,0.0514
609.13,0.0514
609.59,0.0514
610.05,0.0514
610.5,0.0515
610.96,0.0514
611.41,0.0514
611.87,0.0515
612.33,0.0514
612.78,0.0514
613.24,0.0515
613.7,0.0515
614.15,0.0514
614.61,0.0514
615.06,0.0515
615.52,0.0514
615.97,0.0514
616.43,0.0514
616.89,0.0514
617.34,0.0513
617.8,0.0513
618.25,0.0514
618.71,0.0514
619.17,0.0514
619.62,0.0513
620.08,0.0514
620.53,0.0514
620.99,0.0513
621.44,0.0513
621.9,0.0513
622.35,0.0514
622.81,0.0514
623.27,0.0514
623.72,0.0514
624.18,0.0515
624.63,0.0514
625.09,0.0514
625.54,0.0515
626.0,0.0515
626.45,0.0515
626.91,0.0515
627.36,0.0515
627.82,0.0515
628.27,0.0515
628.73,0.0514
629.18,0.0515
629.64,0.0515
630.09,0.0515
630.55,0.0515
631.0,0.0515
631.46,0.0515
631.91,0.0515
632.37,0.0515
632.82,0.0516
633.28,0.0515
633.73,0.0515
634.19,0.0515
634.64,0.0515
635.1,0.0515
635.55,0.0515
636.01,0.0515
636.46,0.0515
636.92,0.0515
637.37,0.0515
637.83,0.0516
638.28,0.0516
638.73,0.0515
639.19,0.0515
639.64,0.0516
640.1,0.0516
640.55,0.0515
641.01,0.0515
641.46,0.0515
641.92,0.0515
642.37,0.0515
642.82,0.0515
643.28,0.0515
643.73,0.0516
644.19,0.0516
644.64,0.0516
645.09,0.0517
645.55,0.0516
646.0,0.0516
646.46,0.0517
646.91,0.0517
647.36,0.0516
647.82,0.0516
648.27,0.0517
648.73,0.0517
649.18,0.0517
649.63,0.0516
650.09,0.0516
650.54,0.0516
651.0,0.0517
651.45,0.0517
651.9,0.0516
652.36,0.0517
652.81,0.0517
653.26,0.0517
653.72,0.0516
654.17,0.0517
654.62,0.0517
655.08,0.0517
655.53,0.0517
655.98,0.0517
656.44,0.0517
656.89,0.0517
657.34,0.0517
657.8,0.0516
658.25,0.0517
658.7,0.0517
659.16,0.0517
659.61,0.0517
660.06,0.0517
660.52,0.0517
660.97,0.0517
661.42,0.0517
661.88,0.0517
662.33,0.0518
662.78,0.0517
663.24,0.0517
663.69,0.0518
664.14,0.0518
664.59,0.0518
665.05,0.0518
665.5,0.0518
665.95,0.0518
666.41,0.0518
666.86,0.0518
667.31,0.0518
667.76,0.0518
668.22,0.0518
668.67,0.0519
669.12,0.0518
669.57,0.0519
670.03,0.0519
670.48,0.0519
670.93,0.0519
671.38,0.0519
671.84,0.0519
672.29,0.0519
672.74,0.0519
673.19,0.0519
673.65,0.0519
674.1,0.0519
674.55,0.052
675.0,0.052
675.46,0.052
675.91,0.052
676.36,0.052
676.81,0.052
677.26,0.0519
677.72,0.052
678.17,0.0519
678.62,0.0519
679.07,0.0519
679.52,0.0519
679.98,0.0519
680.43,0.0519
680.88,0.0519
681.33,0.0519
681.78,0.0518
682.24,0.0518
682.69,0.0519
683.14,0.0519
683.59,0.0519
684.04,0.052
684.49,0.0519
684.95,0.0519
685.4,0.0519
685.85,0.052
686.3,0.052
686.75,0.052
687.2,0.052
687.65,0.052
688.11,0.052
688.56,0.052
689.01,0.0521
689.46,0.0521
689.91,0.052
690.36,0.0521
690.81,0.0521
691.27,0.052
691.72,0.0521
692.17,0.0521
692.62,0.0521
693.07,0.052
693.52,0.0521
693.97,0.0521
694.42,0.052
694.87,0.0521
695.32,0.0521
695.78,0.0521
696.23,0.0521
696.68,0.0521
697.13,0.0521
697.58,0.052
698.03,0.052
698.48,0.052
698.93,0.052
699.38,0.052
699.83,0.0519
700.28,0.052
700.73,0.0519
701.19,0.052
701.64,0.052
702.09,0.052
702.54,0.0519
702.99,0.052
703.44,0.0519
703.89,0.0519
704.34,0.0519
704.79,0.0519
705.24,0.0519
705.69,0.0519
706.14,0.0519
706.59,0.0519
707.04,0.0519
707.49,0.0519
707.94,0.0519
708.39,0.0519
708.84,0.0518
709.29,0.0518
709.74,0.0518
710.19,0.0518
710.64,0.0518
711.09,0.0518
711.54,0.0518
711.99,0.0517
712.44,0.0518
712.89,0.0518
713.34,0.0518
713.79,0.0518
714.24,0.0518
714.69,0.0517
715.14,0.0518
715.59,0.0518
716.04,0.0518
716.49,0.0517
716.94,0.0517
717.39,0.0517
717.84,0.0517
718.29,0.0517
718.74,0.0517
719.19,0.0517
719.64,0.0517
720.09,0.0517
720.53,0.0517
720.98,0.0517
721.43,0.0517
721.88,0.0517
722.33,0.0517
722.78,0.0517
723.23,0.0517
723.68,0.0516
724.13,0.0516
724.58,0.0517
725.03,0.0516
725.48,0.0516
725.93,0.0516
726.37,0.0516
726.82,0.0516
727.27,0.0516
727.72,0.0516
728.17,0.0515
728.62,0.0516
729.07,0.0516
729.52,0.0516
729.97,0.0516
730.41,0.0516
730.86,0.0516
731.31,0.0516
731.76,0.0516
732.21,0.0516
732.66,0.0516
733.11,0.0516
733.56,0.0516
734.0,0.0517
734.45,0.0516
734.9,0.0517
735.35,0.0516
735.8,0.0517
736.25,0.0517
736.7,0.0517
737.14,0.0516
737.59,0.0516
738.04,0.0516
738.49,0.0516
738.94,0.0516
739.38,0.0516
739.83,0.0515
740.28,0.0515
740.73,0.0515
741.18,0.0515
741.63,0.0516
742.07,0.0515
742.52,0.0515
742.97,0.0516
743.42,0.0516
743.87,0.0516
744.31,0.0515
744.76,0.0515
745.21,0.0515
745.66,0.0515
746.11,0.0515
746.55,0.0514
747.0,0.0514
747.45,0.0514
747.9,0.0514
748.34,0.0514
748.79,0.0513
749.24,0.0514
749.69,0.0514
750.13,0.0514
750.58,0.0513
751.03,0.0514
751.48,0.0514
751.92,0.0513
752.37,0.0512
752.82,0.0513
753.27,0.0512
753.71,0.0512
754.16,0.0512
754.61,0.0512
755.06,0.0512
755.5,0.0512
755.95,0.0511
756.4,0.0512
756.84,0.0511
757.29,0.0511
757.74,0.0511
758.19,0.0511
758.63,0.051
759.08,0.0511
759.53,0.051
759.97,0.051
760.42,0.0509
760.87,0.0509
761.31,0.0509
761.76,0.0508
762.21,0.0508
762.65,0.0509
763.1,0.0508
763.55,0.0508
764.0,0.0507
764.44,0.0508
764.89,0.0507
765.34,0.0507
765.78,0.0507
766.23,0.0506
766.67,0.0507
767.12,0.0507
767.57,0.0506
768.01,0.0506
768.46,0.0506
768.91,0.0505
769.35,0.0506
769.8,0.0506
770.25,0.0506
770.69,0.0506
771.14,0.0506
771.58,0.0505
772.03,0.0504
772.48,0.0504
772.92,0.0504
773.37,0.0504
773.82,0.0503
774.26,0.0503
774.71,0.0503
775.15,0.0503
775.6,0.0503
776.05,0.0503
776.49,0.0502
776.94,0.0502
777.38,0.0502
777.83,0.0501
778.28,0.0501
778.72,0.0501
779.17,0.05
779.61,0.05
780.06,0.05
780.5,0.05
780.95,0.0499
781.4,0.0499
781.84,0.0499
782.29,0.0499
782.73,0.0498
783.18,0.0498
783.62,0.0497
784.07,0.0497
784.51,0.0497
784.96,0.0497
785.4,0.0497
785.85,0.0497
786.3,0.0497
786.74,0.0496
787.19,0.0496
787.63,0.0497
788.08,0.0496
788.52,0.0496
788.97,0.0496
789.41,0.0496
789.86,0.0496
790.3,0.0495
790.75,0.0495
791.19,0.0495
791.64,0.0495
792.08,0.0494
792.53,0.0494
792.97,0.0494
793.42,0.0494
793.86,0.0494
794.31,0.0494
794.75,0.0493
795.2,0.0493
795.64,0.0492
796.09,0.0492
796.53,0.0492
796.97,0.0491
797.42,0.0491
797.86,0.0491
798.31,0.0491
798.75,0.0491
799.2,0.0491
799.64,0.049
800.09,0.049
800.53,0.049
800.98,0.0489
801.42,0.049
801.86,0.0489
802.31,0.0489
802.75,0.0489
803.2,0.0489
803.64,0.0489
804.09,0.0488
804.53,0.0488
804.97,0.0489
805.42,0.0489
805.86,0.0488
806.31,0.0488
806.75,0.0488
807.19,0.0488
807.64,0.0488
808.08,0.0488
808.53,0.0488
808.97,0.0487
809.41,0.0487
809.86,0.0487
810.3,0.0486
810.75,0.0486
811.19,0.0486
811.63,0.0486
812.08,0.0486
812.52,0.0485
812.96,0.0485
813.41,0.0485
813.85,0.0484
814.29,0.0484
814.74,0.0484
815.18,0.0483
815.63,0.0483
816.07,0.0484
816.51,0.0483
816.96,0.0483
817.4,0.0482
817.84,0.0482
818.29,0.0482
818.73,0.0482
819.17,0.0481
819.62,0.0481
820.06,0.0481
820.5,0.048
820.95,0.0481
821.39,0.0481
821.83,0.048
822.27,0.0479
822.72,0.0479
823.16,0.0479
823.6,0.0479
824.05,0.0478
824.49,0.0478
824.93,0.0478
825.38,0.0478
825.82,0.0478
826.26,0.0477
826.7,0.0477
827.15,0.0477
827.59,0.0477
828.03,0.0477
828.48,0.0477
828.92,0.0476
829.36,0.0476
829.8,0.0476
830.25,0.0475
830.69,0.0475
831.13,0.0475
831.57,0.0474
832.02,0.0475
832.46,0.0474
832.9,0.0475
833.34,0.0474
833.79,0.0474
834.23,0.0473
834.67,0.0473
835.11,0.0473
835.55,0.0473
836.0,0.0472
836.44,0.0472
836.88,0.0472
837.32,0.0471
837.77,0.0472
838.21,0.0471
838.65,0.0471
839.09,0.0471
839.53,0.0471
839.98,0.0471
840.42,0.047
840.86,0.047
841.3,0.047
841.74,0.047
842.19,0.047
842.63,0.0469
843.07,0.0469
843.51,0.0469
843.95,0.0469
844.39,0.0469
844.84,0.0468
845.28,0.0468
845.72,0.0468
846.16,0.0468
846.6,0.0467
847.04,0.0467
847.49,0.0467
847.93,0.0467
848.37,0.0466
848.81,0.0466
849.25,0.0466
849.69,0.0466
850.13,0.0466
850.58,0.0466
851.02,0.0465
851.46,0.0465
851.9,0.0465
852.34,0.0465
852.78,0.0465
853.22,0.0465
853.66,0.0464
854.11,0.0464
854.55,0.0464
854.99,0.0464
855.43,0.0464
855.87,0.0463
856.31,0.0463
856.75,0.0463
857.19,0.0462
857.63,0.0462
858.07,0.0462
858.51,0.0462
858.96,0.0461
859.4,0.0461
859.84,0.0461
860.28,0.0461
860.72,0.0461
861.16,0.0461
861.6,0.0461
862.04,0.0461
862.48,0.0461
862.92,0.0461
863.36,0.0461
863.8,0.046
864.24,0.0461
864.68,0.046
865.12,0.046
865.56,0.0459
866.01,0.046
866.45,0.0459
866.89,0.0459
867.33,0.0459
867.77,0.0459
868.21,0.0459
868.65,0.0459
869.09,0.0459
869.53,0.0458
869.97,0.0458
870.41,0.0457
870.85,0.0457
871.29,0.0457
871.73,0.0456
872.17,0.0456
872.61,0.0456
873.05,0.0456
873.49,0.0455
873.93,0.0455
874.37,0.0455
874.81,0.0455
875.25,0.0455
875.69,0.0455
876.13,0.0455
876.57,0.0455
877.01,0.0454
877.45,0.0454
877.88,0.0454
878.32,0.0454
878.76,0.0454
879.2,0.0454
879.64,0.0454
880.08,0.0453
880.52,0.0453
880.96,0.0453
881.4,0.0453
881.84,0.0453
882.28,0.0453
882.72,0.0452
883.16,0.0452
883.6,0.0452
884.04,0.0451
884.48,0.0451
884.92,0.0452
885.35,0.0451
885.79,0.0451
886.23,0.0451
886.67,0.0451
887.11,0.0451
887.55,0.0451
887.99,0.0451
888.43,0.045
888.87,0.0451
889.31,0.045
889.75,0.045
890.18,0.045
890.62,0.0449
891.06,0.0449
891.5,0.0449
891.94,0.0449
892.38,0.0449
892.82,0.0448
893.26,0.0449
893.69,0.0449
894.13,0.0448
894.57,0.0448
895.01,0.0448
895.45,0.0447
895.89,0.0447
896.33,0.0447
896.76,0.0447
897.2,0.0447
897.64,0.0446
898.08,0.0446
898.52,0.0446
898.96,0.0446
899.39,0.0446
899.83,0.0446
900.27,0.0446
900.71,0.0446
901.15,0.0445
901.59,0.0445
902.02,0.0445
902.46,0.0445
902.9,0.0444
903.34,0.0444
903.78,0.0444
904.21,0.0444
904.65,0.0443
905.09,0.0444
905.53,0.0443
905.97,0.0443
906.4,0.0443
906.84,0.0442
907.28,0.0442
907.72,0.0442
908.15,0.0442
908.59,0.0442
909.03,0.0441
909.47,0.0442
909.91,0.0442
910.34,0.0441
910.78,0.0441
911.22,0.0441
911.66,0.0441
912.09,0.0441
912.53,0.044
912.97,0.044
913.41,0.044
913.84,0.044
914.28,0.044
914.72,0.044
915.16,0.044
915.59,0.0439
916.03,0.0439
916.47,0.0439
916.9,0.0439
917.34,0.0439
917.78,0.0439
918.22,0.0439
918.65,0.0439
919.09,0.0438
919.53,0.0438
919.96,0.0438
920.4,0.0438
920.84,0.0438
921.28,0.0437
921.71,0.0438
922.15,0.0437
922.59,0.0437
923.02,0.0438
923.46,0.0437
923.9,0.0437
924.33,0.0436
924.77,0.0437
925.21,0.0436
925.64,0.0436
926.08,0.0436
926.52,0.0435
926.95,0.0435
927.39,0.0435
927.83,0.0435
928.26,0.0435
928.7,0.0435
929.14,0.0435
929.57,0.0435
930.01,0.0435
930.44,0.0434
930.88,0.0434
931.32,0.0434
931.75,0.0434
932.19,0.0434
932.63,0.0433
933.06,0.0433
933.5,0.0433
933.94,0.0433
934.37,0.0432
934.81,0.0433
935.24,0.0433
935.68,0.0433
936.12,0.0433
936.55,0.0432
936.99,0.0432
937.42,0.0432
937.86,0.0432
938.3,0.0431
938.73,0.0431
939.17,0.0432
939.6,0.0431
940.04,0.0431
940.47,0.0431
940.91,0.0431
941.35,0.043
941.78,0.043
942.22,0.043
942.65,0.043
943.09,0.043
943.52,0.0429
943.96,0.0429
944.4,0.0429
944.83,0.0429
945.27,0.0429
945.7,0.0429
946.14,0.0429
946.57,0.0429
947.01,0.0429
947.44,0.0429
947.88,0.0429
948.31,0.0428
948.75,0.0428
949.18,0.0428
949.62,0.0428
950.05,0.0427
950.49,0.0427
950.92,0.0427
951.36,0.0427
951.79,0.0427
952.23,0.0427
952.67,0.0427
953.1,0.0427
953.53,0.0426
953.97,0.0426
954.4,0.0426
954.84,0.0426
955.27,0.0426
955.71,0.0425
956.14,0.0426
956.58,0.0426
957.01,0.0425
957.45,0.0425
957.88,0.0424
958.32,0.0424
958.75,0.0425
959.19,0.0424
959.62,0.0424
960.06,0.0424
960.49,0.0424
960.93,0.0423
961.36,0.0423
961.79,0.0423
962.23,0.0423
962.66,0.0423
963.1,0.0423
963.53,0.0423
963.97,0.0422
964.4,0.0423
964.83,0.0422
965.27,0.0422
965.7,0.0422
966.14,0.0422
966.57,0.0422
967.01,0.0423
967.44,0.0422
967.87,0.0422
968.31,0.0422
968.74,0.0422
969.18,0.0421
969.61,0.0421
970.04,0.0421
970.48,0.0421
970.91,0.0421
971.35,0.0421
971.78,0.0421
972.21,0.0421
972.65,0.0421
973.08,0.0421
973.51,0.0421
973.95,0.042
974.38,0.042
974.82,0.042
975.25,0.042
975.68,0.042
976.12,0.042
976.55,0.042
976.98,0.042
977.42,0.042
977.85,0.042
978.28,0.042
978.72,0.0419
979.15,0.0419
979.58,0.0419
980.02,0.0419
980.45,0.0419
980.88,0.0419
981.32,0.0419
981.75,0.0419
982.18,0.0419
982.62,0.0418
983.05,0.0419
983.48,0.0419
983.92,0.0419
984.35,0.0418
984.78,0.0418
985.21,0.0418
985.65,0.0418
986.08,0.0418
986.51,0.0418
986.95,0.0417
987.38,0.0418
987.81,0.0417
988.24,0.0418
988.68,0.0418
989.11,0.0418
989.54,0.0418
989.98,0.0418
990.41,0.0418
990.84,0.0417
991.27,0.0417
991.71,0.0417
992.14,0.0417
992.57,0.0416
993.0,0.0417
993.44,0.0417
993.87,0.0417
994.3,0.0416
994.73,0.0416
995.17,0.0416
995.6,0.0417
996.03,0.0416
996.46,0.0416
996.9,0.0416
997.33,0.0416
997.76,0.0416
998.19,0.0416
998.62,0.0416
999.06,0.0416
999.49,0.0416
999.92,0.0416
1000.35,0.0416
1000.78,0.0415
1001.22,0.0415
1001.65,0.0415
1002.08,0.0414
1002.51,0.0414
1002.94,0.0414
1003.38,0.0414
1003.81,0.0414
1004.24,0.0413
1004.67,0.0414
1005.1,0.0414
1005.54,0.0414
1005.97,0.0414
1006.4,0.0414
1006.83,0.0413
1007.26,0.0414
1007.69,0.0414
1008.13,0.0413
1008.56,0.0413
1008.99,0.0414
1009.42,0.0414
1009.85,0.0413
1010.28,0.0413
1010.71,0.0413
1011.15,0.0413
1011.58,0.0412
1012.01,0.0413
1012.44,0.0412
1012.87,0.0412
1013.3,0.0413
1013.73,0.0412
1014.17,0.0413
1014.6,0.0412
1015.03,0.0412
1015.46,0.0411
1015.89,0.0412
1016.32,0.0412
1016.75,0.0413
1017.18,0.0411
1017.61,0.0411
1018.04,0.0412
1018.48,0.0411
1018.91,0.0411
1019.34,0.0412
1019.77,0.0412
1020.2,0.0411
1020.63,0.0411
1021.06,0.0411
1021.49,0.0411
1021.92,0.0411
1022.35,0.0411
1022.78,0.0411
1023.21,0.041
1023.65,0.0411
1024.08,0.0411
1024.51,0.041
1024.94,0.041
1025.37,0.0411
1025.8,0.041
1026.23,0.041
1026.66,0.0411
1027.09,0.0409
1027.52,0.0411
1027.95,0.041
1028.38,0.041
1028.81,0.041
1029.24,0.041
1029.67,0.041
1030.1,0.041
1030.53,0.041
1030.96,0.0409
1031.39,0.0409
1031.82,0.0409
1032.25,0.041
1032.68,0.041
1033.11,0.0409
1033.54,0.041
1033.97,0.0409
1034.4,0.0409
1034.83,0.041
1035.26,0.0409
1035.69,0.0409
1036.12,0.0409
1036.55,0.0408
1036.98,0.0409
1037.41,0.0409
1037.84,0.0409
1038.27,0.0408
1038.7,0.0408
1039.13,0.0408
1039.56,0.0408
1039.99,0.0408
1040.42,0.0408
1040.85,0.0408
1041.28,0.0408
1041.71,0.0408
1042.14,0.0408
1042.57,0.0408
1043.0,0.0408
1043.43,0.0408
1043.85,0.0408
1044.28,0.0407
1044.71,0.0408
1045.14,0.0408
1045.57,0.0406
1046.0,0.0407
1046.43,0.0407
1046.86,0.0407
1047.29,0.0407
1047.72,0.0407
1048.15,0.0407
1048.58,0.0407
1049.01,0.0408
1049.43,0.0406
1049.86,0.0408
1050.29,0.0406
1050.72,0.0406
1051.15,0.0407
1051.58,0.0407
1052.01,0.0406
1052.44,0.0406
1052.87,0.0407
1053.29,0.0407
1053.72,0.0407
1054.15,0.0406
1054.58,0.0407
1055.01,0.0406
1055.44,0.0406
1055.87,0.0406
1056.3,0.0406
1056.72,0.0406
1057.15,0.0406
1057.58,0.0406
1058.01,0.0405
1058.44,0.0406
1058.87,0.0405
1059.3,0.0405
1059.72,0.0406
1060.15,0.0405
1060.58,0.0406
1061.01,0.0406
1061.44,0.0406
1061.87,0.0406
1062.29,0.0406
1062.72,0.0406
1063.15,0.0406
1063.58,0.0406
1064.01,0.0405
1064.43,0.0406
1064.86,0.0405
1065.29,0.0406
1065.72,0.0406
1066.15,0.0404
1066.57,0.0406
1067.0,0.0406
1067.43,0.0405
1067.86,0.0406
1068.29,0.0406
1068.71,0.0405
1069.14,0.0406
1069.57,0.0406
1070.0,0.0405
1070.43,0.0405
1070.85,0.0405
1071.28,0.0405
1071.71,0.0406
1072.14,0.0405
1072.56,0.0406
1072.99,0.0407
1073.42,0.0406
1073.85,0.0407
1074.27,0.0405
1074.7,0.0406
1075.13,0.0408
1075.56,0.0406
1075.98,0.0406
1076.41,0.0406
1076.84,0.0406
1077.27,0.0406
1077.69,0.0406
1078.12,0.0404
1078.55,0.0406
1078.97,0.0406
1079.4,0.0406
1079.83,0.0406
1080.26,0.0405
1080.68,0.0407
1081.11,0.0404
1081.54,0.0406
1081.96,0.0408
1082.39,0.0406
1082.82,0.0405
1083.25,0.0405
1083.67,0.0407
1084.1,0.0405
1084.53,0.0406
1084.95,0.0405
1085.38,0.0405
1085.81,0.0405
1086.23,0.0406
1086.66,0.0406
1087.09,0.0405
1087.51,0.0405
1087.94,0.0405
1088.37,0.0406
1088.79,0.0405
1089.22,0.0406
1089.65,0.0406
1090.07,0.0407
1090.5,0.0406
1090.93,0.0405
1091.35,0.0406
1091.78,0.0408
1092.21,0.0405
1092.63,0.0408
1093.06,0.0406
1093.48,0.0405
1093.91,0.0406
1094.34,0.0406
1094.76,0.0405
1095.19,0.0405
1095.62,0.0405
1096.04,0.0407
1096.47,0.0406
1096.89,0.0404
1097.32,0.0405
1097.75,0.0404
1098.17,0.0408
1098.6,0.0406
1099.02,0.0405
1099.45,0.0407
1099.88,0.0406
1100.3,0.0406
1100.73,0.0407
1101.15,0.0407
1101.58,0.0406
1102.01,0.0406
1102.43,0.0406
1102.86,0.0406
1103.28,0.0406
1103.71,0.0405
1104.13,0.0408
1104.56,0.0407
1104.99,0.0408
1105.41,0.0408
1105.84,0.0407
1106.26,0.041
1106.69,0.0409
1107.11,0.0408
1107.54,0.0407
1107.96,0.0406
1108.39,0.0406
1108.81,0.0407
1109.24,0.0408
1109.67,0.0409
1110.09,0.0409
1110.52,0.0408
1110.94,0.0406
1111.37,0.0407
1111.79,0.041
1112.22,0.0407
1112.64,0.0408
1113.07,0.041
1113.49,0.0409
1113.92,0.0407
1114.34,0.0408
1114.77,0.0408
1115.19,0.0414
1115.62,0.041
1116.04,0.0409
1116.47,0.0406
1116.89,0.0409
1117.32,0.0411
1117.74,0.0408
1118.17,0.0411
1118.59,0.0413
1119.02,0.0409
1119.44,0.041
1119.87,0.041
1120.29,0.041
1120.71,0.0412
1121.14,0.0407
1121.56,0.0414
1121.99,0.0411
1122.41,0.0415
1122.84,0.0411
1123.26,0.0415
1123.69,0.0413
1124.11,0.0411
1124.54,0.0414
1124.96,0.0417
1125.38,0.0414
1125.81,0.0417
1126.23,0.0416
1126.66,0.0417
1127.08,0.0418
1127.51,0.042
1127.93,0.0414
1128.35,0.0415
1128.78,0.0419
1129.2,0.0424
1129.63,0.0418
1130.05,0.043
1130.47,0.0425
1130.9,0.0426
1131.32,0.0552
1131.75,0.0519
1132.17,0.0498
1132.59,0.054
