Database of Origin,University of Winnipeg Spectrophotometer Facility
Sample Description,9.2. Magnetites: Maya spectra (PSF)
Date Added,2016-07-15 22:02:38.051588

Data ID,MAY_MAG_16          
Sample ID,MAG118
Mineral Name,Magnetite
Grain Size,<45 
Viewing Geometry,30 / 0
Resolution,0.42-0.48 
Material Class,Magnetite

Wavelength
198.73,0.0624
199.22,0.0603
199.7,0.0674
200.18,0.0662
200.66,0.0603
201.14,0.0618
201.63,0.0642
202.11,0.0596
202.59,0.0587
203.07,0.0601
203.55,0.061
204.03,0.0631
204.52,0.0606
205.0,0.0623
205.48,0.0627
205.96,0.061
206.44,0.0635
206.92,0.0617
207.41,0.0597
207.89,0.0619
208.37,0.0617
208.85,0.0604
209.33,0.0597
209.81,0.0595
210.29,0.0631
210.77,0.0615
211.26,0.0615
211.74,0.0598
212.22,0.0621
212.7,0.0626
213.18,0.063
213.66,0.0609
214.14,0.0611
214.62,0.0625
215.1,0.0595
215.59,0.0609
216.07,0.0605
216.55,0.0634
217.03,0.0621
217.51,0.0582
217.99,0.062
218.47,0.0606
218.95,0.0604
219.43,0.0613
219.91,0.0538
220.39,0.0612
220.87,0.0603
221.35,0.0605
221.83,0.0606
222.32,0.0593
222.8,0.0608
223.28,0.0585
223.76,0.0615
224.24,0.0597
224.72,0.0594
225.2,0.0591
225.68,0.0612
226.16,0.061
226.64,0.0618
227.12,0.0612
227.6,0.0614
228.08,0.0615
228.56,0.0613
229.04,0.0584
229.52,0.0605
230.0,0.0592
230.48,0.0594
230.96,0.0627
231.44,0.0598
231.92,0.0604
232.4,0.0616
232.88,0.0632
233.36,0.0608
233.84,0.0611
234.32,0.0608
234.8,0.0618
235.28,0.0633
235.76,0.0622
236.24,0.0619
236.72,0.0592
237.2,0.0604
237.68,0.0617
238.16,0.0593
238.64,0.0635
239.11,0.0607
239.59,0.06
240.07,0.0609
240.55,0.0616
241.03,0.0606
241.51,0.0605
241.99,0.0596
242.47,0.0597
242.95,0.0619
243.43,0.0618
243.91,0.0598
244.39,0.0613
244.87,0.061
245.34,0.0606
245.82,0.0606
246.3,0.0598
246.78,0.0601
247.26,0.0603
247.74,0.0612
248.22,0.06
248.7,0.0578
249.18,0.0598
249.66,0.0613
250.13,0.0619
250.61,0.0591
251.09,0.0616
251.57,0.0618
252.05,0.0605
252.53,0.0577
253.01,0.0603
253.48,0.0608
253.96,0.0592
254.44,0.0599
254.92,0.061
255.4,0.0568
255.88,0.0599
256.36,0.0626
256.83,0.0627
257.31,0.0586
257.79,0.06
258.27,0.0616
258.75,0.0597
259.22,0.061
259.7,0.06
260.18,0.0595
260.66,0.0586
261.14,0.0603
261.62,0.0606
262.09,0.0584
262.57,0.0603
263.05,0.0577
263.53,0.0599
264.01,0.0598
264.48,0.0607
264.96,0.0618
265.44,0.0608
265.92,0.0608
266.39,0.0614
266.87,0.0605
267.35,0.0598
267.83,0.0592
268.31,0.059
268.78,0.0599
269.26,0.0598
269.74,0.0592
270.22,0.0578
270.69,0.0597
271.17,0.0599
271.65,0.0579
272.13,0.0616
272.6,0.0607
273.08,0.0606
273.56,0.0588
274.03,0.061
274.51,0.0604
274.99,0.059
275.47,0.0577
275.94,0.0593
276.42,0.0589
276.9,0.0597
277.37,0.059
277.85,0.0604
278.33,0.0591
278.81,0.0572
279.28,0.0628
279.76,0.0599
280.24,0.0573
280.71,0.0589
281.19,0.0579
281.67,0.0594
282.14,0.0595
282.62,0.0612
283.1,0.0575
283.57,0.0602
284.05,0.057
284.53,0.0595
285.0,0.058
285.48,0.0581
285.96,0.0595
286.43,0.0627
286.91,0.0599
287.39,0.0567
287.86,0.0595
288.34,0.0586
288.82,0.0604
289.29,0.0599
289.77,0.0578
290.24,0.0558
290.72,0.0598
291.2,0.0579
291.67,0.0601
292.15,0.0589
292.63,0.0584
293.1,0.0593
293.58,0.0574
294.05,0.0602
294.53,0.0594
295.01,0.0583
295.48,0.0575
295.96,0.0599
296.43,0.0588
296.91,0.0572
297.38,0.058
297.86,0.058
298.34,0.0588
298.81,0.0573
299.29,0.0571
299.76,0.059
300.24,0.0577
300.71,0.0555
301.19,0.0571
301.67,0.0595
302.14,0.0574
302.62,0.0566
303.09,0.0555
303.57,0.0595
304.04,0.0566
304.52,0.0575
304.99,0.0573
305.47,0.0579
305.94,0.0596
306.42,0.0578
306.89,0.0573
307.37,0.0555
307.85,0.0573
308.32,0.0564
308.8,0.0576
309.27,0.0559
309.75,0.0567
310.22,0.058
310.7,0.0554
311.17,0.0563
311.65,0.0575
312.12,0.0582
312.6,0.0574
313.07,0.0566
313.54,0.0567
314.02,0.057
314.49,0.0585
314.97,0.0572
315.44,0.0569
315.92,0.0565
316.39,0.0566
316.87,0.0582
317.34,0.0553
317.82,0.0561
318.29,0.0558
318.77,0.0595
319.24,0.057
319.71,0.0552
320.19,0.0561
320.66,0.0563
321.14,0.0559
321.61,0.058
322.09,0.055
322.56,0.0558
323.03,0.0562
323.51,0.055
323.98,0.0565
324.46,0.0566
324.93,0.0557
325.41,0.0545
325.88,0.0566
326.35,0.0551
326.83,0.0564
327.3,0.056
327.78,0.055
328.25,0.0556
328.72,0.0571
329.2,0.0557
329.67,0.0549
330.14,0.0554
330.62,0.0537
331.09,0.0552
331.57,0.0548
332.04,0.0535
332.51,0.0548
332.99,0.055
333.46,0.0553
333.93,0.0551
334.41,0.0562
334.88,0.0546
335.35,0.0549
335.83,0.0536
336.3,0.0564
336.77,0.0559
337.25,0.0562
337.72,0.0542
338.19,0.0546
338.67,0.0549
339.14,0.0533
339.61,0.0527
340.09,0.0544
340.56,0.0533
341.03,0.0545
341.51,0.0528
341.98,0.0535
342.45,0.0534
342.92,0.0525
343.4,0.0535
343.87,0.0537
344.34,0.0528
344.82,0.053
345.29,0.0535
345.76,0.0533
346.23,0.0528
346.71,0.054
347.18,0.0524
347.65,0.0536
348.13,0.0531
348.6,0.0526
349.07,0.0526
349.54,0.0523
350.02,0.0525
350.49,0.0527
350.96,0.0525
351.43,0.0531
351.91,0.0524
352.38,0.0528
352.85,0.0529
353.32,0.0524
353.79,0.0538
354.27,0.0521
354.74,0.0527
355.21,0.0527
355.68,0.0518
356.16,0.0517
356.63,0.0528
357.1,0.0524
357.57,0.0521
358.04,0.0527
358.52,0.0372
358.99,0.052
359.46,0.0521
359.93,0.0521
360.4,0.0515
360.88,0.0526
361.35,0.0521
361.82,0.0519
362.29,0.0523
362.76,0.0516
363.23,0.0524
363.71,0.0515
364.18,0.0516
364.65,0.0517
365.12,0.0524
365.59,0.0522
366.06,0.0511
366.54,0.0518
367.01,0.052
367.48,0.0513
367.95,0.0516
368.42,0.0516
368.89,0.0525
369.36,0.0519
369.84,0.0516
370.31,0.0517
370.78,0.0514
371.25,0.05
371.72,0.0514
372.19,0.0514
372.66,0.051
373.13,0.0508
373.6,0.0512
374.08,0.0509
374.55,0.0518
375.02,0.0519
375.49,0.0513
375.96,0.052
376.43,0.0508
376.9,0.0511
377.37,0.051
377.84,0.0507
378.31,0.0508
378.78,0.0512
379.25,0.0519
379.73,0.0513
380.2,0.0513
380.67,0.0513
381.14,0.0507
381.61,0.0511
382.08,0.0506
382.55,0.051
383.02,0.0511
383.49,0.0514
383.96,0.0508
384.43,0.0514
384.9,0.0511
385.37,0.0512
385.84,0.0505
386.31,0.0512
386.78,0.0504
387.25,0.0511
387.72,0.0508
388.19,0.0507
388.66,0.0508
389.13,0.0508
389.6,0.0513
390.07,0.0505
390.54,0.0514
391.01,0.0508
391.48,0.0509
391.95,0.0507
392.42,0.0516
392.89,0.0504
393.36,0.0508
393.83,0.0508
394.3,0.0512
394.77,0.0509
395.24,0.051
395.71,0.0513
396.18,0.0507
396.65,0.0508
397.12,0.0512
397.59,0.0505
398.06,0.0511
398.53,0.0511
399.0,0.0511
399.47,0.0509
399.94,0.0508
400.41,0.0508
400.87,0.0507
401.34,0.0507
401.81,0.0508
402.28,0.0508
402.75,0.0505
403.22,0.0501
403.69,0.051
404.16,0.051
404.63,0.0507
405.1,0.0508
405.57,0.0504
406.04,0.0507
406.5,0.0508
406.97,0.0507
407.44,0.0508
407.91,0.0506
408.38,0.0509
408.85,0.0507
409.32,0.051
409.79,0.0506
410.26,0.0506
410.72,0.0509
411.19,0.0504
411.66,0.0504
412.13,0.0507
412.6,0.0506
413.07,0.0506
413.54,0.0509
414.0,0.0508
414.47,0.0506
414.94,0.0507
415.41,0.0508
415.88,0.0505
416.35,0.0506
416.82,0.0505
417.28,0.0507
417.75,0.0506
418.22,0.0506
418.69,0.051
419.16,0.0507
419.62,0.0507
420.09,0.0507
420.56,0.0506
421.03,0.0505
421.5,0.0507
421.97,0.0508
422.43,0.0506
422.9,0.0505
423.37,0.0508
423.84,0.0507
424.3,0.0506
424.77,0.0509
425.24,0.0506
425.71,0.0508
426.18,0.0509
426.64,0.0506
427.11,0.0506
427.58,0.0507
428.05,0.0509
428.51,0.0506
428.98,0.0505
429.45,0.0508
429.92,0.0508
430.38,0.0507
430.85,0.0507
431.32,0.0506
431.79,0.0509
432.25,0.0508
432.72,0.0505
433.19,0.0509
433.66,0.0507
434.12,0.0509
434.59,0.0507
435.06,0.0508
435.53,0.0508
435.99,0.051
436.46,0.0508
436.93,0.0507
437.39,0.0507
437.86,0.0507
438.33,0.0507
438.79,0.0506
439.26,0.0507
439.73,0.0507
440.2,0.0507
440.66,0.0505
441.13,0.051
441.6,0.0505
442.06,0.0507
442.53,0.0507
443.0,0.0507
443.46,0.0506
443.93,0.0509
444.4,0.0504
444.86,0.0508
445.33,0.0506
445.8,0.0507
446.26,0.0507
446.73,0.0506
447.2,0.0507
447.66,0.0505
448.13,0.0506
448.59,0.0505
449.06,0.0506
449.53,0.0506
449.99,0.0506
450.46,0.0505
450.93,0.0507
451.39,0.0504
451.86,0.0504
452.32,0.0504
452.79,0.0503
453.26,0.0504
453.72,0.0505
454.19,0.0506
454.65,0.0504
455.12,0.0504
455.59,0.0503
456.05,0.0503
456.52,0.0503
456.98,0.0502
457.45,0.0503
457.92,0.0501
458.38,0.0503
458.85,0.0502
459.31,0.0502
459.78,0.0501
460.24,0.05
460.71,0.0501
461.17,0.0501
461.64,0.0503
462.11,0.0501
462.57,0.0501
463.04,0.0501
463.5,0.05
463.97,0.0502
464.43,0.0501
464.9,0.0499
465.36,0.0501
465.83,0.0501
466.29,0.05
466.76,0.0501
467.22,0.05
467.69,0.05
468.16,0.05
468.62,0.0499
469.09,0.0499
469.55,0.05
470.02,0.0499
470.48,0.0501
470.95,0.0501
471.41,0.05
471.88,0.05
472.34,0.05
472.8,0.0498
473.27,0.0498
473.73,0.0499
474.2,0.0499
474.66,0.05
475.13,0.0498
475.59,0.0498
476.06,0.0498
476.52,0.0499
476.99,0.0498
477.45,0.0499
477.92,0.0498
478.38,0.0497
478.85,0.0499
479.31,0.0498
479.77,0.0497
480.24,0.0499
480.7,0.0498
481.17,0.0498
481.63,0.0499
482.1,0.0496
482.56,0.0497
483.02,0.0498
483.49,0.0498
483.95,0.0499
484.42,0.0499
484.88,0.0498
485.34,0.0498
485.81,0.0498
486.27,0.0499
486.74,0.0498
487.2,0.0498
487.66,0.0498
488.13,0.0499
488.59,0.0499
489.06,0.05
489.52,0.0499
489.98,0.05
490.45,0.0498
490.91,0.0499
491.38,0.0499
491.84,0.0499
492.3,0.0499
492.77,0.05
493.23,0.05
493.69,0.0499
494.16,0.0499
494.62,0.0499
495.08,0.0499
495.55,0.05
496.01,0.05
496.47,0.0499
496.94,0.05
497.4,0.05
497.86,0.0499
498.33,0.0499
498.79,0.05
499.25,0.05
499.72,0.05
500.18,0.05
500.64,0.05
501.11,0.05
501.57,0.0501
502.03,0.0501
502.5,0.0501
502.96,0.0502
503.42,0.05
503.88,0.0501
504.35,0.0501
504.81,0.0501
505.27,0.0501
505.74,0.05
506.2,0.0501
506.66,0.0502
507.12,0.0502
507.59,0.0502
508.05,0.0502
508.51,0.0501
508.97,0.0502
509.44,0.0502
509.9,0.0502
510.36,0.0502
510.82,0.0502
511.29,0.0502
511.75,0.0502
512.21,0.0503
512.67,0.0503
513.14,0.0503
513.6,0.0503
514.06,0.0503
514.52,0.0504
514.99,0.0504
515.45,0.0504
515.91,0.0505
516.37,0.0505
516.83,0.0505
517.3,0.0505
517.76,0.0504
518.22,0.0505
518.68,0.0505
519.14,0.0504
519.61,0.0506
520.07,0.0505
520.53,0.0505
520.99,0.0506
521.45,0.0505
521.91,0.0506
522.38,0.0506
522.84,0.0506
523.3,0.0506
523.76,0.0506
524.22,0.0505
524.68,0.0505
525.15,0.0505
525.61,0.0506
526.07,0.0507
526.53,0.0506
526.99,0.0506
527.45,0.0507
527.92,0.0507
528.38,0.0508
528.84,0.0507
529.3,0.0507
529.76,0.0508
530.22,0.0507
530.68,0.0508
531.14,0.0508
531.61,0.0508
532.07,0.0508
532.53,0.0509
532.99,0.0509
533.45,0.051
533.91,0.051
534.37,0.0509
534.83,0.0511
535.29,0.051
535.75,0.0511
536.22,0.0511
536.68,0.0511
537.14,0.0512
537.6,0.0511
538.06,0.0512
538.52,0.0512
538.98,0.0512
539.44,0.0512
539.9,0.0512
540.36,0.0514
540.82,0.0513
541.28,0.0513
541.74,0.0513
542.2,0.0513
542.67,0.0514
543.13,0.0513
543.59,0.0515
544.05,0.0514
544.51,0.0515
544.97,0.0516
545.43,0.0515
545.89,0.0515
546.35,0.0516
546.81,0.0516
547.27,0.0516
547.73,0.0516
548.19,0.0517
548.65,0.0516
549.11,0.0517
549.57,0.0517
550.03,0.0517
550.49,0.0518
550.95,0.0518
551.41,0.0518
551.87,0.0518
552.33,0.0518
552.79,0.0519
553.25,0.0519
553.71,0.052
554.17,0.0519
554.63,0.052
555.09,0.052
555.55,0.0521
556.01,0.0521
556.47,0.0521
556.93,0.0522
557.39,0.0522
557.85,0.0523
558.3,0.0522
558.76,0.0523
559.22,0.0523
559.68,0.0524
560.14,0.0525
560.6,0.0524
561.06,0.0525
561.52,0.0525
561.98,0.0525
562.44,0.0525
562.9,0.0526
563.36,0.0526
563.82,0.0526
564.28,0.0526
564.74,0.0528
565.19,0.0527
565.65,0.0528
566.11,0.0528
566.57,0.0529
567.03,0.0529
567.49,0.0529
567.95,0.053
568.41,0.053
568.87,0.053
569.32,0.0531
569.78,0.0531
570.24,0.0532
570.7,0.0531
571.16,0.0532
571.62,0.0533
572.08,0.0533
572.54,0.0534
572.99,0.0533
573.45,0.0534
573.91,0.0536
574.37,0.0535
574.83,0.0535
575.29,0.0536
575.75,0.0537
576.2,0.0537
576.66,0.0537
577.12,0.0538
577.58,0.0538
578.04,0.0538
578.5,0.0538
578.95,0.0539
579.41,0.0539
579.87,0.054
580.33,0.0541
580.79,0.0542
581.24,0.0541
581.7,0.0542
582.16,0.0542
582.62,0.0543
583.08,0.0544
583.53,0.0544
583.99,0.0545
584.45,0.0545
584.91,0.0546
585.37,0.0546
585.82,0.0547
586.28,0.0547
586.74,0.0547
587.2,0.0548
587.65,0.0549
588.11,0.0549
588.57,0.0548
589.03,0.0549
589.48,0.055
589.94,0.055
590.4,0.055
590.86,0.0551
591.31,0.0552
591.77,0.0552
592.23,0.0553
592.69,0.0552
593.14,0.0553
593.6,0.0553
594.06,0.0553
594.52,0.0553
594.97,0.0553
595.43,0.0555
595.89,0.0555
596.34,0.0555
596.8,0.0556
597.26,0.0556
597.72,0.0556
598.17,0.0556
598.63,0.0556
599.09,0.0557
599.54,0.0557
600.0,0.0557
600.46,0.0558
600.91,0.0558
601.37,0.0558
601.83,0.0559
602.28,0.0559
602.74,0.0558
603.2,0.0559
603.66,0.056
604.11,0.056
604.57,0.056
605.03,0.056
605.48,0.0561
605.94,0.056
606.39,0.0561
606.85,0.0561
607.31,0.0561
607.76,0.0561
608.22,0.0561
608.68,0.0562
609.13,0.0561
609.59,0.0562
610.05,0.0562
610.5,0.0562
610.96,0.0562
611.41,0.0562
611.87,0.0563
612.33,0.0563
612.78,0.0563
613.24,0.0563
613.7,0.0564
614.15,0.0563
614.61,0.0563
615.06,0.0564
615.52,0.0564
615.97,0.0564
616.43,0.0564
616.89,0.0564
617.34,0.0564
617.8,0.0564
618.25,0.0565
618.71,0.0565
619.17,0.0565
619.62,0.0565
620.08,0.0566
620.53,0.0565
620.99,0.0566
621.44,0.0566
621.9,0.0566
622.35,0.0566
622.81,0.0566
623.27,0.0567
623.72,0.0567
624.18,0.0566
624.63,0.0567
625.09,0.0567
625.54,0.0567
626.0,0.0567
626.45,0.0568
626.91,0.0567
627.36,0.0567
627.82,0.0567
628.27,0.0567
628.73,0.0567
629.18,0.0567
629.64,0.0568
630.09,0.0567
630.55,0.0568
631.0,0.0568
631.46,0.0568
631.91,0.0569
632.37,0.0569
632.82,0.0569
633.28,0.0568
633.73,0.0568
634.19,0.0569
634.64,0.0568
635.1,0.0569
635.55,0.0569
636.01,0.0569
636.46,0.057
636.92,0.0569
637.37,0.0569
637.83,0.0569
638.28,0.0569
638.73,0.0569
639.19,0.0569
639.64,0.0569
640.1,0.0569
640.55,0.057
641.01,0.057
641.46,0.057
641.92,0.057
642.37,0.057
642.82,0.057
643.28,0.057
643.73,0.057
644.19,0.0571
644.64,0.0571
645.09,0.0571
645.55,0.0571
646.0,0.0571
646.46,0.057
646.91,0.0571
647.36,0.0571
647.82,0.0571
648.27,0.057
648.73,0.057
649.18,0.057
649.63,0.057
650.09,0.057
650.54,0.057
651.0,0.057
651.45,0.057
651.9,0.057
652.36,0.0571
652.81,0.057
653.26,0.057
653.72,0.057
654.17,0.057
654.62,0.057
655.08,0.057
655.53,0.057
655.98,0.057
656.44,0.057
656.89,0.057
657.34,0.057
657.8,0.0571
658.25,0.057
658.7,0.0571
659.16,0.0571
659.61,0.0571
660.06,0.057
660.52,0.0571
660.97,0.0572
661.42,0.0571
661.88,0.0571
662.33,0.0571
662.78,0.0571
663.24,0.0571
663.69,0.0572
664.14,0.0572
664.59,0.0571
665.05,0.0572
665.5,0.0572
665.95,0.0571
666.41,0.0572
666.86,0.0571
667.31,0.0571
667.76,0.0571
668.22,0.0572
668.67,0.0572
669.12,0.0572
669.57,0.0571
670.03,0.0571
670.48,0.0572
670.93,0.0572
671.38,0.0571
671.84,0.0571
672.29,0.0571
672.74,0.0571
673.19,0.0571
673.65,0.0571
674.1,0.0571
674.55,0.0571
675.0,0.0572
675.46,0.0572
675.91,0.0572
676.36,0.0572
676.81,0.0572
677.26,0.0572
677.72,0.0572
678.17,0.0572
678.62,0.0572
679.07,0.0572
679.52,0.0572
679.98,0.0572
680.43,0.0572
680.88,0.0572
681.33,0.0572
681.78,0.0573
682.24,0.0573
682.69,0.0573
683.14,0.0573
683.59,0.0573
684.04,0.0573
684.49,0.0573
684.95,0.0573
685.4,0.0573
685.85,0.0573
686.3,0.0573
686.75,0.0573
687.2,0.0573
687.65,0.0573
688.11,0.0573
688.56,0.0573
689.01,0.0573
689.46,0.0573
689.91,0.0573
690.36,0.0573
690.81,0.0573
691.27,0.0573
691.72,0.0573
692.17,0.0573
692.62,0.0573
693.07,0.0573
693.52,0.0573
693.97,0.0573
694.42,0.0573
694.87,0.0573
695.32,0.0573
695.78,0.0573
696.23,0.0573
696.68,0.0573
697.13,0.0573
697.58,0.0573
698.03,0.0573
698.48,0.0573
698.93,0.0573
699.38,0.0573
699.83,0.0573
700.28,0.0573
700.73,0.0573
701.19,0.0573
701.64,0.0573
702.09,0.0574
702.54,0.0573
702.99,0.0574
703.44,0.0574
703.89,0.0573
704.34,0.0573
704.79,0.0573
705.24,0.0573
705.69,0.0573
706.14,0.0573
706.59,0.0573
707.04,0.0573
707.49,0.0573
707.94,0.0573
708.39,0.0573
708.84,0.0573
709.29,0.0573
709.74,0.0574
710.19,0.0573
710.64,0.0573
711.09,0.0573
711.54,0.0573
711.99,0.0573
712.44,0.0573
712.89,0.0573
713.34,0.0573
713.79,0.0573
714.24,0.0573
714.69,0.0573
715.14,0.0573
715.59,0.0573
716.04,0.0573
716.49,0.0573
716.94,0.0573
717.39,0.0573
717.84,0.0573
718.29,0.0573
718.74,0.0573
719.19,0.0573
719.64,0.0573
720.09,0.0573
720.53,0.0572
720.98,0.0573
721.43,0.0572
721.88,0.0573
722.33,0.0572
722.78,0.0571
723.23,0.0572
723.68,0.0571
724.13,0.0571
724.58,0.0572
725.03,0.0571
725.48,0.0571
725.93,0.0571
726.37,0.0571
726.82,0.0572
727.27,0.0571
727.72,0.0572
728.17,0.0572
728.62,0.0571
729.07,0.0572
729.52,0.0571
729.97,0.0571
730.41,0.0571
730.86,0.0572
731.31,0.0571
731.76,0.0571
732.21,0.0571
732.66,0.0571
733.11,0.0571
733.56,0.0571
734.0,0.057
734.45,0.0571
734.9,0.0571
735.35,0.0571
735.8,0.0571
736.25,0.057
736.7,0.0571
737.14,0.0571
737.59,0.0571
738.04,0.057
738.49,0.057
738.94,0.057
739.38,0.057
739.83,0.057
740.28,0.0569
740.73,0.057
741.18,0.0569
741.63,0.0569
742.07,0.0569
742.52,0.0569
742.97,0.0569
743.42,0.0569
743.87,0.0569
744.31,0.0569
744.76,0.0568
745.21,0.0568
745.66,0.0568
746.11,0.0568
746.55,0.0568
747.0,0.0568
747.45,0.0568
747.9,0.0567
748.34,0.0567
748.79,0.0567
749.24,0.0567
749.69,0.0566
750.13,0.0566
750.58,0.0566
751.03,0.0566
751.48,0.0566
751.92,0.0566
752.37,0.0566
752.82,0.0566
753.27,0.0566
753.71,0.0566
754.16,0.0566
754.61,0.0566
755.06,0.0566
755.5,0.0566
755.95,0.0566
756.4,0.0566
756.84,0.0565
757.29,0.0565
757.74,0.0565
758.19,0.0565
758.63,0.0565
759.08,0.0564
759.53,0.0565
759.97,0.0564
760.42,0.0564
760.87,0.0564
761.31,0.0563
761.76,0.0563
762.21,0.0563
762.65,0.0563
763.1,0.0564
763.55,0.0563
764.0,0.0562
764.44,0.0562
764.89,0.0562
765.34,0.0562
765.78,0.0562
766.23,0.0561
766.67,0.0561
767.12,0.0561
767.57,0.056
768.01,0.056
768.46,0.056
768.91,0.056
769.35,0.056
769.8,0.056
770.25,0.056
770.69,0.056
771.14,0.056
771.58,0.0559
772.03,0.0559
772.48,0.0559
772.92,0.0559
773.37,0.0558
773.82,0.0558
774.26,0.0559
774.71,0.0558
775.15,0.0558
775.6,0.0557
776.05,0.0557
776.49,0.0557
776.94,0.0557
777.38,0.0557
777.83,0.0556
778.28,0.0556
778.72,0.0556
779.17,0.0556
779.61,0.0555
780.06,0.0554
780.5,0.0555
780.95,0.0554
781.4,0.0555
781.84,0.0554
782.29,0.0554
782.73,0.0554
783.18,0.0554
783.62,0.0553
784.07,0.0553
784.51,0.0552
784.96,0.0553
785.4,0.0553
785.85,0.0553
786.3,0.0553
786.74,0.0553
787.19,0.0553
787.63,0.0553
788.08,0.0552
788.52,0.0552
788.97,0.0552
789.41,0.0552
789.86,0.0551
790.3,0.0552
790.75,0.055
791.19,0.055
791.64,0.055
792.08,0.055
792.53,0.055
792.97,0.0549
793.42,0.0549
793.86,0.0549
794.31,0.0548
794.75,0.0549
795.2,0.0548
795.64,0.0547
796.09,0.0547
796.53,0.0547
796.97,0.0546
797.42,0.0546
797.86,0.0547
798.31,0.0547
798.75,0.0546
799.2,0.0546
799.64,0.0546
800.09,0.0545
800.53,0.0546
800.98,0.0545
801.42,0.0545
801.86,0.0545
802.31,0.0545
802.75,0.0544
803.2,0.0545
803.64,0.0545
804.09,0.0544
804.53,0.0544
804.97,0.0544
805.42,0.0543
805.86,0.0544
806.31,0.0543
806.75,0.0542
807.19,0.0543
807.64,0.0543
808.08,0.0542
808.53,0.0542
808.97,0.0542
809.41,0.0542
809.86,0.0542
810.3,0.0541
810.75,0.0541
811.19,0.054
811.63,0.0541
812.08,0.054
812.52,0.054
812.96,0.054
813.41,0.054
813.85,0.054
814.29,0.0539
814.74,0.0539
815.18,0.0539
815.63,0.0539
816.07,0.0539
816.51,0.0539
816.96,0.0538
817.4,0.0538
817.84,0.0538
818.29,0.0537
818.73,0.0538
819.17,0.0537
819.62,0.0537
820.06,0.0536
820.5,0.0536
820.95,0.0536
821.39,0.0537
821.83,0.0536
822.27,0.0535
822.72,0.0535
823.16,0.0535
823.6,0.0535
824.05,0.0535
824.49,0.0535
824.93,0.0534
825.38,0.0535
825.82,0.0533
826.26,0.0534
826.7,0.0534
827.15,0.0533
827.59,0.0533
828.03,0.0533
828.48,0.0532
828.92,0.0532
829.36,0.0532
829.8,0.0532
830.25,0.0532
830.69,0.0532
831.13,0.0531
831.57,0.0531
832.02,0.0531
832.46,0.0531
832.9,0.0531
833.34,0.0531
833.79,0.0531
834.23,0.053
834.67,0.053
835.11,0.053
835.55,0.053
836.0,0.0529
836.44,0.053
836.88,0.053
837.32,0.0529
837.77,0.0529
838.21,0.0529
838.65,0.053
839.09,0.0529
839.53,0.0529
839.98,0.0528
840.42,0.0529
840.86,0.0529
841.3,0.0529
841.74,0.0528
842.19,0.0527
842.63,0.0528
843.07,0.0528
843.51,0.0528
843.95,0.0527
844.39,0.0527
844.84,0.0527
845.28,0.0527
845.72,0.0527
846.16,0.0527
846.6,0.0527
847.04,0.0526
847.49,0.0526
847.93,0.0526
848.37,0.0525
848.81,0.0525
849.25,0.0526
849.69,0.0525
850.13,0.0525
850.58,0.0524
851.02,0.0524
851.46,0.0524
851.9,0.0524
852.34,0.0524
852.78,0.0524
853.22,0.0523
853.66,0.0523
854.11,0.0523
854.55,0.0523
854.99,0.0523
855.43,0.0523
855.87,0.0522
856.31,0.0522
856.75,0.0521
857.19,0.0521
857.63,0.052
858.07,0.052
858.51,0.0521
858.96,0.052
859.4,0.052
859.84,0.052
860.28,0.052
860.72,0.052
861.16,0.052
861.6,0.052
862.04,0.052
862.48,0.0519
862.92,0.0519
863.36,0.0518
863.8,0.0519
864.24,0.0519
864.68,0.0518
865.12,0.0518
865.56,0.0518
866.01,0.0518
866.45,0.0517
866.89,0.0517
867.33,0.0517
867.77,0.0517
868.21,0.0516
868.65,0.0517
869.09,0.0516
869.53,0.0516
869.97,0.0515
870.41,0.0515
870.85,0.0515
871.29,0.0515
871.73,0.0515
872.17,0.0514
872.61,0.0515
873.05,0.0514
873.49,0.0514
873.93,0.0514
874.37,0.0514
874.81,0.0514
875.25,0.0514
875.69,0.0513
876.13,0.0514
876.57,0.0513
877.01,0.0513
877.45,0.0513
877.88,0.0512
878.32,0.0513
878.76,0.0512
879.2,0.0512
879.64,0.0512
880.08,0.0512
880.52,0.0512
880.96,0.0511
881.4,0.0511
881.84,0.0511
882.28,0.0511
882.72,0.0511
883.16,0.0511
883.6,0.0511
884.04,0.051
884.48,0.051
884.92,0.0511
885.35,0.051
885.79,0.051
886.23,0.0509
886.67,0.051
887.11,0.051
887.55,0.051
887.99,0.051
888.43,0.051
888.87,0.051
889.31,0.0509
889.75,0.051
890.18,0.051
890.62,0.0509
891.06,0.0509
891.5,0.0509
891.94,0.0508
892.38,0.0509
892.82,0.0509
893.26,0.0508
893.69,0.0508
894.13,0.0508
894.57,0.0508
895.01,0.0508
895.45,0.0508
895.89,0.0508
896.33,0.0507
896.76,0.0507
897.2,0.0506
897.64,0.0507
898.08,0.0507
898.52,0.0507
898.96,0.0507
899.39,0.0506
899.83,0.0506
900.27,0.0506
900.71,0.0506
901.15,0.0506
901.59,0.0506
902.02,0.0505
902.46,0.0505
902.9,0.0506
903.34,0.0505
903.78,0.0505
904.21,0.0505
904.65,0.0505
905.09,0.0505
905.53,0.0505
905.97,0.0505
906.4,0.0505
906.84,0.0504
907.28,0.0504
907.72,0.0504
908.15,0.0504
908.59,0.0504
909.03,0.0504
909.47,0.0504
909.91,0.0504
910.34,0.0503
910.78,0.0503
911.22,0.0503
911.66,0.0503
912.09,0.0502
912.53,0.0502
912.97,0.0502
913.41,0.0502
913.84,0.0502
914.28,0.0502
914.72,0.0501
915.16,0.0501
915.59,0.05
916.03,0.0501
916.47,0.0501
916.9,0.0501
917.34,0.0501
917.78,0.0501
918.22,0.05
918.65,0.0501
919.09,0.0501
919.53,0.05
919.96,0.05
920.4,0.05
920.84,0.05
921.28,0.05
921.71,0.05
922.15,0.05
922.59,0.05
923.02,0.05
923.46,0.0501
923.9,0.05
924.33,0.05
924.77,0.05
925.21,0.05
925.64,0.0499
926.08,0.05
926.52,0.05
926.95,0.05
927.39,0.05
927.83,0.05
928.26,0.05
928.7,0.05
929.14,0.0501
929.57,0.05
930.01,0.05
930.44,0.05
930.88,0.05
931.32,0.0499
931.75,0.0499
932.19,0.0499
932.63,0.0499
933.06,0.0499
933.5,0.0498
933.94,0.0498
934.37,0.0498
934.81,0.0498
935.24,0.0498
935.68,0.0498
936.12,0.0498
936.55,0.0498
936.99,0.0498
937.42,0.0497
937.86,0.0497
938.3,0.0498
938.73,0.0497
939.17,0.0498
939.6,0.0498
940.04,0.0497
940.47,0.0497
940.91,0.0497
941.35,0.0496
941.78,0.0496
942.22,0.0496
942.65,0.0497
943.09,0.0496
943.52,0.0496
943.96,0.0496
944.4,0.0495
944.83,0.0496
945.27,0.0496
945.7,0.0496
946.14,0.0496
946.57,0.0495
947.01,0.0496
947.44,0.0495
947.88,0.0495
948.31,0.0495
948.75,0.0495
949.18,0.0495
949.62,0.0494
950.05,0.0494
950.49,0.0494
950.92,0.0494
951.36,0.0495
951.79,0.0494
952.23,0.0494
952.67,0.0494
953.1,0.0494
953.53,0.0494
953.97,0.0494
954.4,0.0493
954.84,0.0494
955.27,0.0493
955.71,0.0493
956.14,0.0494
956.58,0.0494
957.01,0.0493
957.45,0.0493
957.88,0.0493
958.32,0.0493
958.75,0.0493
959.19,0.0493
959.62,0.0492
960.06,0.0493
960.49,0.0492
960.93,0.0492
961.36,0.0492
961.79,0.0491
962.23,0.0491
962.66,0.0492
963.1,0.0491
963.53,0.0491
963.97,0.0491
964.4,0.0491
964.83,0.0491
965.27,0.0491
965.7,0.0491
966.14,0.049
966.57,0.0491
967.01,0.0491
967.44,0.049
967.87,0.049
968.31,0.049
968.74,0.049
969.18,0.0489
969.61,0.049
970.04,0.0489
970.48,0.0489
970.91,0.0489
971.35,0.0489
971.78,0.0489
972.21,0.0489
972.65,0.0488
973.08,0.0488
973.51,0.0488
973.95,0.0488
974.38,0.0488
974.82,0.0488
975.25,0.0488
975.68,0.0487
976.12,0.0488
976.55,0.0487
976.98,0.0488
977.42,0.0488
977.85,0.0487
978.28,0.0488
978.72,0.0488
979.15,0.0488
979.58,0.0487
980.02,0.0487
980.45,0.0487
980.88,0.0487
981.32,0.0487
981.75,0.0487
982.18,0.0487
982.62,0.0487
983.05,0.0487
983.48,0.0487
983.92,0.0487
984.35,0.0487
984.78,0.0486
985.21,0.0486
985.65,0.0486
986.08,0.0487
986.51,0.0486
986.95,0.0487
987.38,0.0487
987.81,0.0486
988.24,0.0487
988.68,0.0486
989.11,0.0486
989.54,0.0486
989.98,0.0486
990.41,0.0486
990.84,0.0486
991.27,0.0486
991.71,0.0486
992.14,0.0486
992.57,0.0485
993.0,0.0485
993.44,0.0485
993.87,0.0485
994.3,0.0485
994.73,0.0485
995.17,0.0485
995.6,0.0485
996.03,0.0485
996.46,0.0485
996.9,0.0484
997.33,0.0485
997.76,0.0484
998.19,0.0484
998.62,0.0484
999.06,0.0483
999.49,0.0484
999.92,0.0484
1000.35,0.0483
1000.78,0.0483
1001.22,0.0483
1001.65,0.0483
1002.08,0.0483
1002.51,0.0483
1002.94,0.0482
1003.38,0.0483
1003.81,0.0482
1004.24,0.0483
1004.67,0.0482
1005.1,0.0482
1005.54,0.0482
1005.97,0.0483
1006.4,0.0483
1006.83,0.0482
1007.26,0.0483
1007.69,0.0483
1008.13,0.0482
1008.56,0.0482
1008.99,0.0482
1009.42,0.0482
1009.85,0.0482
1010.28,0.0482
1010.71,0.0482
1011.15,0.0482
1011.58,0.0481
1012.01,0.0482
1012.44,0.0482
1012.87,0.0481
1013.3,0.0482
1013.73,0.0481
1014.17,0.0481
1014.6,0.0481
1015.03,0.0482
1015.46,0.0482
1015.89,0.0481
1016.32,0.0482
1016.75,0.0481
1017.18,0.0481
1017.61,0.0482
1018.04,0.0482
1018.48,0.0482
1018.91,0.0481
1019.34,0.0481
1019.77,0.0481
1020.2,0.0481
1020.63,0.0481
1021.06,0.0481
1021.49,0.0481
1021.92,0.0481
1022.35,0.0482
1022.78,0.0481
1023.21,0.0481
1023.65,0.0481
1024.08,0.0481
1024.51,0.0481
1024.94,0.0481
1025.37,0.0481
1025.8,0.0481
1026.23,0.048
1026.66,0.0481
1027.09,0.048
1027.52,0.0481
1027.95,0.0481
1028.38,0.0481
1028.81,0.0481
1029.24,0.0481
1029.67,0.048
1030.1,0.0481
1030.53,0.048
1030.96,0.048
1031.39,0.048
1031.82,0.0479
1032.25,0.048
1032.68,0.048
1033.11,0.048
1033.54,0.0479
1033.97,0.048
1034.4,0.048
1034.83,0.048
1035.26,0.048
1035.69,0.048
1036.12,0.0479
1036.55,0.048
1036.98,0.0479
1037.41,0.048
1037.84,0.0479
1038.27,0.0479
1038.7,0.0479
1039.13,0.0479
1039.56,0.0479
1039.99,0.0479
1040.42,0.0479
1040.85,0.0478
1041.28,0.0479
1041.71,0.0479
1042.14,0.0478
1042.57,0.0479
1043.0,0.0478
1043.43,0.0479
1043.85,0.0477
1044.28,0.0479
1044.71,0.0478
1045.14,0.0478
1045.57,0.0478
1046.0,0.0478
1046.43,0.0477
1046.86,0.0478
1047.29,0.0478
1047.72,0.0477
1048.15,0.0478
1048.58,0.0477
1049.01,0.048
1049.43,0.0477
1049.86,0.0477
1050.29,0.0477
1050.72,0.0477
1051.15,0.0477
1051.58,0.0478
1052.01,0.0478
1052.44,0.0477
1052.87,0.0477
1053.29,0.0477
1053.72,0.0476
1054.15,0.0477
1054.58,0.0477
1055.01,0.0477
1055.44,0.0478
1055.87,0.0477
1056.3,0.0478
1056.72,0.0479
1057.15,0.0477
1057.58,0.0478
1058.01,0.0477
1058.44,0.0478
1058.87,0.0479
1059.3,0.0478
1059.72,0.0479
1060.15,0.0479
1060.58,0.0477
1061.01,0.0478
1061.44,0.0478
1061.87,0.0478
1062.29,0.0479
1062.72,0.0479
1063.15,0.0477
1063.58,0.0478
1064.01,0.0478
1064.43,0.0478
1064.86,0.0477
1065.29,0.0478
1065.72,0.0478
1066.15,0.0479
1066.57,0.0479
1067.0,0.0477
1067.43,0.0478
1067.86,0.0479
1068.29,0.048
1068.71,0.0479
1069.14,0.0479
1069.57,0.0478
1070.0,0.0478
1070.43,0.0479
1070.85,0.0479
1071.28,0.0478
1071.71,0.0478
1072.14,0.0478
1072.56,0.048
1072.99,0.0479
1073.42,0.0478
1073.85,0.0478
1074.27,0.0479
1074.7,0.0478
1075.13,0.0479
1075.56,0.048
1075.98,0.0478
1076.41,0.0479
1076.84,0.0479
1077.27,0.0479
1077.69,0.048
1078.12,0.0479
1078.55,0.0479
1078.97,0.0479
1079.4,0.0478
1079.83,0.0479
1080.26,0.048
1080.68,0.0478
1081.11,0.0478
1081.54,0.0478
1081.96,0.0478
1082.39,0.0479
1082.82,0.0478
1083.25,0.048
1083.67,0.048
1084.1,0.048
1084.53,0.048
1084.95,0.048
1085.38,0.0481
1085.81,0.0479
1086.23,0.048
1086.66,0.0481
1087.09,0.048
1087.51,0.0478
1087.94,0.0478
1088.37,0.0479
1088.79,0.0479
1089.22,0.0478
1089.65,0.048
1090.07,0.048
1090.5,0.048
1090.93,0.0479
1091.35,0.048
1091.78,0.0481
1092.21,0.0481
1092.63,0.048
1093.06,0.0481
1093.48,0.0478
1093.91,0.0479
1094.34,0.048
1094.76,0.048
1095.19,0.0479
1095.62,0.048
1096.04,0.048
1096.47,0.0481
1096.89,0.0478
1097.32,0.0481
1097.75,0.0478
1098.17,0.0483
1098.6,0.0481
1099.02,0.048
1099.45,0.0479
1099.88,0.048
1100.3,0.0478
1100.73,0.0481
1101.15,0.048
1101.58,0.0481
1102.01,0.048
1102.43,0.048
1102.86,0.0481
1103.28,0.048
1103.71,0.0481
1104.13,0.0481
1104.56,0.0479
1104.99,0.0481
1105.41,0.048
1105.84,0.0478
1106.26,0.0481
1106.69,0.0481
1107.11,0.048
1107.54,0.048
1107.96,0.0477
1108.39,0.0479
1108.81,0.0479
1109.24,0.0482
1109.67,0.0482
1110.09,0.048
1110.52,0.048
1110.94,0.048
1111.37,0.0477
1111.79,0.0481
1112.22,0.0484
1112.64,0.0482
1113.07,0.0482
1113.49,0.0484
1113.92,0.0482
1114.34,0.0481
1114.77,0.0481
1115.19,0.0486
1115.62,0.0482
1116.04,0.0482
1116.47,0.0482
1116.89,0.048
1117.32,0.0484
1117.74,0.0485
1118.17,0.0487
1118.59,0.0484
1119.02,0.0485
1119.44,0.0484
1119.87,0.0484
1120.29,0.0483
1120.71,0.0486
1121.14,0.0484
1121.56,0.0485
1121.99,0.0484
1122.41,0.0485
1122.84,0.0485
1123.26,0.0488
1123.69,0.0487
1124.11,0.0487
1124.54,0.049
1124.96,0.0486
1125.38,0.0487
1125.81,0.0491
1126.23,0.0488
1126.66,0.0491
1127.08,0.0489
1127.51,0.0495
1127.93,0.0485
1128.35,0.049
1128.78,0.0488
1129.2,0.0497
1129.63,0.0495
1130.05,0.0491
1130.47,0.0493
1130.9,0.0501
1131.32,0.0612
1131.75,0.0601
1132.17,0.0593
1132.59,0.0601
