Database of Origin,University of Winnipeg Spectrophotometer Facility
Sample Description,9.2. Magnetites: Maya spectra (PSF)
Date Added,2016-07-15 22:02:37.852447

Data ID,MAY_MAG_02          
Sample ID,MAG103
Mineral Name,Magnetite
Grain Size,<45 
Viewing Geometry,30 / 0
Resolution,0.42-0.48 
Material Class,Magnetite

Wavelength
198.73,0.0513
199.22,0.047
199.7,0.0527
200.18,0.0516
200.66,0.0515
201.14,0.0507
201.63,0.0531
202.11,0.0509
202.59,0.0495
203.07,0.053
203.55,0.0531
204.03,0.0536
204.52,0.0514
205.0,0.054
205.48,0.0526
205.96,0.0522
206.44,0.0522
206.92,0.0505
207.41,0.0507
207.89,0.0526
208.37,0.0522
208.85,0.0522
209.33,0.0511
209.81,0.0515
210.29,0.0523
210.77,0.0478
211.26,0.0515
211.74,0.0509
212.22,0.0513
212.7,0.0523
213.18,0.0516
213.66,0.0519
214.14,0.0524
214.62,0.0504
215.1,0.0516
215.59,0.0515
216.07,0.0525
216.55,0.0528
217.03,0.051
217.51,0.0519
217.99,0.0525
218.47,0.0503
218.95,0.0511
219.43,0.0496
219.91,0.0508
220.39,0.0513
220.87,0.0511
221.35,0.0508
221.83,0.0523
222.32,0.0508
222.8,0.0506
223.28,0.0495
223.76,0.0521
224.24,0.0512
224.72,0.0512
225.2,0.0502
225.68,0.0522
226.16,0.0533
226.64,0.0515
227.12,0.0507
227.6,0.0529
228.08,0.051
228.56,0.0516
229.04,0.0491
229.52,0.0524
230.0,0.0513
230.48,0.0492
230.96,0.0516
231.44,0.0513
231.92,0.0512
232.4,0.051
232.88,0.0506
233.36,0.0518
233.84,0.0516
234.32,0.053
234.8,0.0518
235.28,0.0523
235.76,0.0523
236.24,0.0524
236.72,0.0509
237.2,0.0527
237.68,0.0528
238.16,0.0521
238.64,0.0534
239.11,0.0514
239.59,0.0506
240.07,0.0511
240.55,0.0537
241.03,0.0503
241.51,0.0492
241.99,0.0518
242.47,0.0509
242.95,0.0524
243.43,0.0525
243.91,0.0492
244.39,0.0544
244.87,0.0508
245.34,0.0531
245.82,0.0517
246.3,0.0502
246.78,0.0522
247.26,0.0514
247.74,0.0507
248.22,0.0505
248.7,0.0527
249.18,0.051
249.66,0.0512
250.13,0.0534
250.61,0.0505
251.09,0.0506
251.57,0.0513
252.05,0.0528
252.53,0.0496
253.01,0.052
253.48,0.0515
253.96,0.0502
254.44,0.0508
254.92,0.0511
255.4,0.0473
255.88,0.0515
256.36,0.0513
256.83,0.0511
257.31,0.0483
257.79,0.0517
258.27,0.0534
258.75,0.0497
259.22,0.052
259.7,0.0515
260.18,0.0512
260.66,0.0515
261.14,0.0515
261.62,0.052
262.09,0.052
262.57,0.0505
263.05,0.0509
263.53,0.0522
264.01,0.0517
264.48,0.0511
264.96,0.0526
265.44,0.0519
265.92,0.0497
266.39,0.0509
266.87,0.0521
267.35,0.0508
267.83,0.0528
268.31,0.0513
268.78,0.0503
269.26,0.0498
269.74,0.0518
270.22,0.0494
270.69,0.0506
271.17,0.0495
271.65,0.0518
272.13,0.0512
272.6,0.0491
273.08,0.0518
273.56,0.051
274.03,0.0495
274.51,0.0528
274.99,0.0489
275.47,0.0507
275.94,0.0523
276.42,0.0495
276.9,0.0526
277.37,0.0499
277.85,0.0529
278.33,0.0522
278.81,0.0479
279.28,0.0512
279.76,0.0525
280.24,0.0511
280.71,0.0501
281.19,0.0512
281.67,0.0516
282.14,0.0506
282.62,0.053
283.1,0.0518
283.57,0.0521
284.05,0.0501
284.53,0.0515
285.0,0.0514
285.48,0.0495
285.96,0.0512
286.43,0.0498
286.91,0.0518
287.39,0.0517
287.86,0.05
288.34,0.0507
288.82,0.0511
289.29,0.0512
289.77,0.049
290.24,0.0504
290.72,0.0502
291.2,0.0503
291.67,0.0512
292.15,0.0511
292.63,0.0509
293.1,0.0511
293.58,0.0507
294.05,0.0518
294.53,0.0497
295.01,0.0503
295.48,0.049
295.96,0.0509
296.43,0.0528
296.91,0.0491
297.38,0.0501
297.86,0.0495
298.34,0.0507
298.81,0.0479
299.29,0.0513
299.76,0.0509
300.24,0.0493
300.71,0.0485
301.19,0.0506
301.67,0.0496
302.14,0.0507
302.62,0.0494
303.09,0.05
303.57,0.0512
304.04,0.0489
304.52,0.0502
304.99,0.0499
305.47,0.0505
305.94,0.0514
306.42,0.0493
306.89,0.0502
307.37,0.0496
307.85,0.0507
308.32,0.0499
308.8,0.0501
309.27,0.0493
309.75,0.0494
310.22,0.0505
310.7,0.0501
311.17,0.05
311.65,0.0499
312.12,0.0505
312.6,0.0499
313.07,0.0489
313.54,0.0509
314.02,0.0494
314.49,0.0518
314.97,0.0492
315.44,0.0498
315.92,0.0504
316.39,0.0505
316.87,0.0506
317.34,0.0491
317.82,0.0488
318.29,0.0505
318.77,0.0518
319.24,0.051
319.71,0.0491
320.19,0.0492
320.66,0.0487
321.14,0.0505
321.61,0.0504
322.09,0.0489
322.56,0.0495
323.03,0.0488
323.51,0.0497
323.98,0.0493
324.46,0.051
324.93,0.0486
325.41,0.0486
325.88,0.051
326.35,0.0491
326.83,0.0508
327.3,0.0502
327.78,0.0498
328.25,0.0491
328.72,0.0507
329.2,0.0496
329.67,0.0507
330.14,0.0504
330.62,0.0479
331.09,0.05
331.57,0.0493
332.04,0.0486
332.51,0.05
332.99,0.0506
333.46,0.0494
333.93,0.0504
334.41,0.0488
334.88,0.0488
335.35,0.0493
335.83,0.0488
336.3,0.0501
336.77,0.0505
337.25,0.0496
337.72,0.0488
338.19,0.051
338.67,0.0494
339.14,0.0488
339.61,0.0492
340.09,0.0502
340.56,0.05
341.03,0.0491
341.51,0.0487
341.98,0.05
342.45,0.0487
342.92,0.0484
343.4,0.0499
343.87,0.0476
344.34,0.0486
344.82,0.0494
345.29,0.0476
345.76,0.0493
346.23,0.0496
346.71,0.0487
347.18,0.0484
347.65,0.0493
348.13,0.0489
348.6,0.0492
349.07,0.0489
349.54,0.0492
350.02,0.0492
350.49,0.0497
350.96,0.049
351.43,0.0493
351.91,0.0487
352.38,0.0498
352.85,0.0501
353.32,0.049
353.79,0.0493
354.27,0.0492
354.74,0.0496
355.21,0.0493
355.68,0.0487
356.16,0.0491
356.63,0.0493
357.1,0.0487
357.57,0.049
358.04,0.0498
358.52,0.0351
358.99,0.0493
359.46,0.0486
359.93,0.0493
360.4,0.0489
360.88,0.0489
361.35,0.0483
361.82,0.0487
362.29,0.0492
362.76,0.0489
363.23,0.0498
363.71,0.0493
364.18,0.0493
364.65,0.049
365.12,0.0491
365.59,0.0496
366.06,0.0484
366.54,0.0495
367.01,0.0487
367.48,0.0487
367.95,0.049
368.42,0.0489
368.89,0.0487
369.36,0.0494
369.84,0.0494
370.31,0.0494
370.78,0.0488
371.25,0.0487
371.72,0.0493
372.19,0.0491
372.66,0.049
373.13,0.049
373.6,0.0491
374.08,0.0493
374.55,0.049
375.02,0.0487
375.49,0.0494
375.96,0.0488
376.43,0.0487
376.9,0.0493
377.37,0.0492
377.84,0.0492
378.31,0.0487
378.78,0.049
379.25,0.0489
379.73,0.0492
380.2,0.049
380.67,0.0496
381.14,0.048
381.61,0.0494
382.08,0.0488
382.55,0.0488
383.02,0.0495
383.49,0.0492
383.96,0.0497
384.43,0.0493
384.9,0.0496
385.37,0.0493
385.84,0.0492
386.31,0.0493
386.78,0.0491
387.25,0.0494
387.72,0.0492
388.19,0.0494
388.66,0.0493
389.13,0.0492
389.6,0.0494
390.07,0.0494
390.54,0.0494
391.01,0.0495
391.48,0.0494
391.95,0.0497
392.42,0.0501
392.89,0.0492
393.36,0.0495
393.83,0.0494
394.3,0.0495
394.77,0.0496
395.24,0.0497
395.71,0.0497
396.18,0.0496
396.65,0.0498
397.12,0.0498
397.59,0.0495
398.06,0.0498
398.53,0.0496
399.0,0.0496
399.47,0.0495
399.94,0.0495
400.41,0.0497
400.87,0.0494
401.34,0.0495
401.81,0.0497
402.28,0.0496
402.75,0.0494
403.22,0.0493
403.69,0.0496
404.16,0.0496
404.63,0.0497
405.1,0.0495
405.57,0.0493
406.04,0.0493
406.5,0.0496
406.97,0.0495
407.44,0.0496
407.91,0.0497
408.38,0.0496
408.85,0.0493
409.32,0.0496
409.79,0.0496
410.26,0.0498
410.72,0.0494
411.19,0.0499
411.66,0.0497
412.13,0.0498
412.6,0.0499
413.07,0.0498
413.54,0.0499
414.0,0.0498
414.47,0.0497
414.94,0.0496
415.41,0.0497
415.88,0.0498
416.35,0.0498
416.82,0.0495
417.28,0.0496
417.75,0.0496
418.22,0.0496
418.69,0.0499
419.16,0.0497
419.62,0.0499
420.09,0.0497
420.56,0.0502
421.03,0.0497
421.5,0.0498
421.97,0.0497
422.43,0.0497
422.9,0.0497
423.37,0.05
423.84,0.05
424.3,0.0497
424.77,0.0498
425.24,0.05
425.71,0.0497
426.18,0.0498
426.64,0.0499
427.11,0.0498
427.58,0.05
428.05,0.0499
428.51,0.05
428.98,0.0497
429.45,0.0499
429.92,0.0501
430.38,0.0499
430.85,0.0498
431.32,0.0499
431.79,0.0498
432.25,0.05
432.72,0.05
433.19,0.0501
433.66,0.0498
434.12,0.05
434.59,0.0499
435.06,0.0499
435.53,0.05
435.99,0.05
436.46,0.0503
436.93,0.0499
437.39,0.0502
437.86,0.0498
438.33,0.05
438.79,0.0501
439.26,0.05
439.73,0.0501
440.2,0.05
440.66,0.05
441.13,0.0499
441.6,0.05
442.06,0.05
442.53,0.0502
443.0,0.0501
443.46,0.05
443.93,0.0501
444.4,0.0498
444.86,0.05
445.33,0.05
445.8,0.05
446.26,0.05
446.73,0.0497
447.2,0.0499
447.66,0.0499
448.13,0.05
448.59,0.0498
449.06,0.05
449.53,0.05
449.99,0.05
450.46,0.0499
450.93,0.05
451.39,0.05
451.86,0.0498
452.32,0.05
452.79,0.05
453.26,0.0499
453.72,0.05
454.19,0.0499
454.65,0.0498
455.12,0.0498
455.59,0.05
456.05,0.0498
456.52,0.0499
456.98,0.05
457.45,0.05
457.92,0.0499
458.38,0.0499
458.85,0.0498
459.31,0.0498
459.78,0.0498
460.24,0.0498
460.71,0.0499
461.17,0.0499
461.64,0.0499
462.11,0.0498
462.57,0.05
463.04,0.05
463.5,0.0498
463.97,0.0499
464.43,0.0499
464.9,0.0499
465.36,0.0499
465.83,0.0498
466.29,0.0498
466.76,0.0498
467.22,0.05
467.69,0.05
468.16,0.0499
468.62,0.0497
469.09,0.0498
469.55,0.0499
470.02,0.0499
470.48,0.0498
470.95,0.05
471.41,0.0498
471.88,0.0499
472.34,0.0499
472.8,0.0499
473.27,0.0499
473.73,0.0499
474.2,0.0499
474.66,0.0498
475.13,0.0498
475.59,0.0497
476.06,0.0498
476.52,0.0499
476.99,0.0497
477.45,0.0498
477.92,0.0498
478.38,0.0498
478.85,0.0499
479.31,0.0497
479.77,0.0498
480.24,0.0497
480.7,0.0498
481.17,0.0497
481.63,0.0498
482.1,0.0498
482.56,0.0496
483.02,0.0498
483.49,0.0497
483.95,0.0497
484.42,0.0497
484.88,0.0497
485.34,0.0496
485.81,0.0497
486.27,0.0498
486.74,0.0498
487.2,0.0498
487.66,0.0497
488.13,0.0498
488.59,0.0499
489.06,0.0497
489.52,0.0499
489.98,0.0497
490.45,0.0497
490.91,0.0497
491.38,0.0498
491.84,0.0498
492.3,0.0497
492.77,0.0498
493.23,0.0498
493.69,0.0497
494.16,0.0498
494.62,0.0498
495.08,0.0498
495.55,0.0497
496.01,0.0498
496.47,0.0498
496.94,0.0497
497.4,0.0496
497.86,0.0497
498.33,0.0497
498.79,0.0498
499.25,0.0497
499.72,0.0497
500.18,0.0498
500.64,0.0498
501.11,0.0498
501.57,0.0498
502.03,0.0497
502.5,0.0497
502.96,0.0498
503.42,0.0497
503.88,0.0498
504.35,0.0496
504.81,0.0497
505.27,0.0497
505.74,0.0498
506.2,0.0497
506.66,0.0498
507.12,0.0497
507.59,0.0498
508.05,0.0497
508.51,0.0497
508.97,0.0498
509.44,0.0498
509.9,0.0498
510.36,0.0497
510.82,0.0497
511.29,0.0497
511.75,0.0497
512.21,0.0497
512.67,0.0498
513.14,0.0498
513.6,0.0497
514.06,0.0498
514.52,0.0498
514.99,0.0497
515.45,0.0498
515.91,0.0498
516.37,0.0498
516.83,0.0498
517.3,0.0498
517.76,0.0498
518.22,0.0498
518.68,0.0498
519.14,0.0497
519.61,0.0499
520.07,0.0498
520.53,0.0497
520.99,0.0499
521.45,0.05
521.91,0.0498
522.38,0.0498
522.84,0.0499
523.3,0.0499
523.76,0.0498
524.22,0.0498
524.68,0.0498
525.15,0.0498
525.61,0.0498
526.07,0.0498
526.53,0.0499
526.99,0.0498
527.45,0.0498
527.92,0.0497
528.38,0.0499
528.84,0.0498
529.3,0.0499
529.76,0.0498
530.22,0.0498
530.68,0.0498
531.14,0.0498
531.61,0.0498
532.07,0.0498
532.53,0.0498
532.99,0.0498
533.45,0.0498
533.91,0.0499
534.37,0.0498
534.83,0.0499
535.29,0.0498
535.75,0.05
536.22,0.0498
536.68,0.0499
537.14,0.0499
537.6,0.0499
538.06,0.05
538.52,0.05
538.98,0.0499
539.44,0.0499
539.9,0.05
540.36,0.05
540.82,0.05
541.28,0.0501
541.74,0.05
542.2,0.05
542.67,0.05
543.13,0.0501
543.59,0.05
544.05,0.0501
544.51,0.05
544.97,0.05
545.43,0.05
545.89,0.0501
546.35,0.0501
546.81,0.0501
547.27,0.0501
547.73,0.0501
548.19,0.0501
548.65,0.0503
549.11,0.0502
549.57,0.0503
550.03,0.0502
550.49,0.0502
550.95,0.0503
551.41,0.0502
551.87,0.0503
552.33,0.0503
552.79,0.0503
553.25,0.0502
553.71,0.0503
554.17,0.0503
554.63,0.0504
555.09,0.0503
555.55,0.0504
556.01,0.0503
556.47,0.0503
556.93,0.0503
557.39,0.0504
557.85,0.0503
558.3,0.0503
558.76,0.0503
559.22,0.0503
559.68,0.0504
560.14,0.0504
560.6,0.0505
561.06,0.0505
561.52,0.0505
561.98,0.0505
562.44,0.0505
562.9,0.0505
563.36,0.0505
563.82,0.0505
564.28,0.0506
564.74,0.0506
565.19,0.0506
565.65,0.0505
566.11,0.0506
566.57,0.0506
567.03,0.0507
567.49,0.0507
567.95,0.0507
568.41,0.0507
568.87,0.0508
569.32,0.0507
569.78,0.0508
570.24,0.0508
570.7,0.0507
571.16,0.0508
571.62,0.0508
572.08,0.0508
572.54,0.0508
572.99,0.0509
573.45,0.0508
573.91,0.0508
574.37,0.0509
574.83,0.0509
575.29,0.0509
575.75,0.0509
576.2,0.0509
576.66,0.051
577.12,0.0509
577.58,0.051
578.04,0.051
578.5,0.051
578.95,0.051
579.41,0.051
579.87,0.0511
580.33,0.0511
580.79,0.0511
581.24,0.0511
581.7,0.051
582.16,0.0511
582.62,0.051
583.08,0.051
583.53,0.0511
583.99,0.0511
584.45,0.0511
584.91,0.0512
585.37,0.0512
585.82,0.0512
586.28,0.0512
586.74,0.0513
587.2,0.0513
587.65,0.0513
588.11,0.0513
588.57,0.0512
589.03,0.0513
589.48,0.0514
589.94,0.0513
590.4,0.0514
590.86,0.0514
591.31,0.0514
591.77,0.0514
592.23,0.0514
592.69,0.0514
593.14,0.0514
593.6,0.0514
594.06,0.0514
594.52,0.0513
594.97,0.0514
595.43,0.0514
595.89,0.0514
596.34,0.0514
596.8,0.0514
597.26,0.0514
597.72,0.0515
598.17,0.0515
598.63,0.0515
599.09,0.0516
599.54,0.0515
600.0,0.0515
600.46,0.0516
600.91,0.0515
601.37,0.0515
601.83,0.0516
602.28,0.0516
602.74,0.0516
603.2,0.0515
603.66,0.0516
604.11,0.0516
604.57,0.0517
605.03,0.0516
605.48,0.0516
605.94,0.0517
606.39,0.0517
606.85,0.0517
607.31,0.0517
607.76,0.0517
608.22,0.0518
608.68,0.0518
609.13,0.0518
609.59,0.0518
610.05,0.0518
610.5,0.0518
610.96,0.0519
611.41,0.0519
611.87,0.0519
612.33,0.0519
612.78,0.0519
613.24,0.0519
613.7,0.0518
614.15,0.0519
614.61,0.0519
615.06,0.0519
615.52,0.0519
615.97,0.0519
616.43,0.0519
616.89,0.0519
617.34,0.0519
617.8,0.0519
618.25,0.052
618.71,0.052
619.17,0.052
619.62,0.0521
620.08,0.0521
620.53,0.0521
620.99,0.0521
621.44,0.0521
621.9,0.0521
622.35,0.0521
622.81,0.0522
623.27,0.0521
623.72,0.0521
624.18,0.0521
624.63,0.0522
625.09,0.0521
625.54,0.0522
626.0,0.0522
626.45,0.0522
626.91,0.0522
627.36,0.0522
627.82,0.0522
628.27,0.0522
628.73,0.0521
629.18,0.0522
629.64,0.0521
630.09,0.0522
630.55,0.0522
631.0,0.0522
631.46,0.0522
631.91,0.0522
632.37,0.0522
632.82,0.0522
633.28,0.0523
633.73,0.0523
634.19,0.0523
634.64,0.0522
635.1,0.0523
635.55,0.0522
636.01,0.0523
636.46,0.0523
636.92,0.0524
637.37,0.0523
637.83,0.0523
638.28,0.0524
638.73,0.0524
639.19,0.0524
639.64,0.0524
640.1,0.0524
640.55,0.0524
641.01,0.0524
641.46,0.0525
641.92,0.0524
642.37,0.0525
642.82,0.0525
643.28,0.0525
643.73,0.0525
644.19,0.0526
644.64,0.0526
645.09,0.0526
645.55,0.0526
646.0,0.0526
646.46,0.0527
646.91,0.0526
647.36,0.0526
647.82,0.0526
648.27,0.0526
648.73,0.0526
649.18,0.0527
649.63,0.0527
650.09,0.0527
650.54,0.0527
651.0,0.0526
651.45,0.0527
651.9,0.0527
652.36,0.0527
652.81,0.0528
653.26,0.0527
653.72,0.0527
654.17,0.0527
654.62,0.0527
655.08,0.0527
655.53,0.0527
655.98,0.0527
656.44,0.0528
656.89,0.0528
657.34,0.0528
657.8,0.0528
658.25,0.0528
658.7,0.0528
659.16,0.0529
659.61,0.0529
660.06,0.0529
660.52,0.0529
660.97,0.0529
661.42,0.0529
661.88,0.0528
662.33,0.0529
662.78,0.0529
663.24,0.0529
663.69,0.0529
664.14,0.0529
664.59,0.0529
665.05,0.0529
665.5,0.0529
665.95,0.0529
666.41,0.0529
666.86,0.0529
667.31,0.0529
667.76,0.0529
668.22,0.0529
668.67,0.0529
669.12,0.0529
669.57,0.0529
670.03,0.053
670.48,0.053
670.93,0.053
671.38,0.053
671.84,0.053
672.29,0.0531
672.74,0.053
673.19,0.0531
673.65,0.053
674.1,0.0531
674.55,0.053
675.0,0.0531
675.46,0.0531
675.91,0.0532
676.36,0.0531
676.81,0.0531
677.26,0.0532
677.72,0.0532
678.17,0.0532
678.62,0.0532
679.07,0.0532
679.52,0.0532
679.98,0.0533
680.43,0.0533
680.88,0.0532
681.33,0.0532
681.78,0.0533
682.24,0.0533
682.69,0.0532
683.14,0.0533
683.59,0.0533
684.04,0.0533
684.49,0.0533
684.95,0.0533
685.4,0.0533
685.85,0.0533
686.3,0.0533
686.75,0.0533
687.2,0.0533
687.65,0.0533
688.11,0.0534
688.56,0.0534
689.01,0.0534
689.46,0.0534
689.91,0.0534
690.36,0.0534
690.81,0.0534
691.27,0.0534
691.72,0.0533
692.17,0.0534
692.62,0.0534
693.07,0.0534
693.52,0.0534
693.97,0.0534
694.42,0.0534
694.87,0.0534
695.32,0.0534
695.78,0.0534
696.23,0.0534
696.68,0.0534
697.13,0.0534
697.58,0.0534
698.03,0.0534
698.48,0.0535
698.93,0.0535
699.38,0.0535
699.83,0.0535
700.28,0.0536
700.73,0.0536
701.19,0.0535
701.64,0.0536
702.09,0.0536
702.54,0.0536
702.99,0.0536
703.44,0.0536
703.89,0.0536
704.34,0.0536
704.79,0.0537
705.24,0.0536
705.69,0.0537
706.14,0.0537
706.59,0.0536
707.04,0.0537
707.49,0.0537
707.94,0.0537
708.39,0.0537
708.84,0.0537
709.29,0.0537
709.74,0.0538
710.19,0.0537
710.64,0.0538
711.09,0.0537
711.54,0.0538
711.99,0.0537
712.44,0.0538
712.89,0.0538
713.34,0.0538
713.79,0.0538
714.24,0.0538
714.69,0.0537
715.14,0.0538
715.59,0.0538
716.04,0.0538
716.49,0.0537
716.94,0.0538
717.39,0.0538
717.84,0.0538
718.29,0.0538
718.74,0.0538
719.19,0.0538
719.64,0.0539
720.09,0.0538
720.53,0.0539
720.98,0.0539
721.43,0.0539
721.88,0.0539
722.33,0.0539
722.78,0.0539
723.23,0.054
723.68,0.0539
724.13,0.054
724.58,0.0539
725.03,0.054
725.48,0.054
725.93,0.054
726.37,0.054
726.82,0.054
727.27,0.054
727.72,0.054
728.17,0.054
728.62,0.054
729.07,0.054
729.52,0.054
729.97,0.054
730.41,0.054
730.86,0.054
731.31,0.0541
731.76,0.054
732.21,0.054
732.66,0.054
733.11,0.054
733.56,0.054
734.0,0.054
734.45,0.054
734.9,0.054
735.35,0.054
735.8,0.054
736.25,0.054
736.7,0.0541
737.14,0.054
737.59,0.054
738.04,0.054
738.49,0.054
738.94,0.0541
739.38,0.0541
739.83,0.0541
740.28,0.054
740.73,0.054
741.18,0.0541
741.63,0.0541
742.07,0.0541
742.52,0.0541
742.97,0.0541
743.42,0.0541
743.87,0.0541
744.31,0.0542
744.76,0.0541
745.21,0.0542
745.66,0.0542
746.11,0.0541
746.55,0.0542
747.0,0.0542
747.45,0.0542
747.9,0.0542
748.34,0.0542
748.79,0.0542
749.24,0.0543
749.69,0.0542
750.13,0.0543
750.58,0.0542
751.03,0.0543
751.48,0.0543
751.92,0.0543
752.37,0.0542
752.82,0.0542
753.27,0.0542
753.71,0.0542
754.16,0.0543
754.61,0.0543
755.06,0.0543
755.5,0.0543
755.95,0.0543
756.4,0.0543
756.84,0.0543
757.29,0.0543
757.74,0.0543
758.19,0.0543
758.63,0.0543
759.08,0.0543
759.53,0.0543
759.97,0.0543
760.42,0.0543
760.87,0.0542
761.31,0.0543
761.76,0.0543
762.21,0.0543
762.65,0.0543
763.1,0.0543
763.55,0.0543
764.0,0.0543
764.44,0.0543
764.89,0.0543
765.34,0.0543
765.78,0.0543
766.23,0.0542
766.67,0.0543
767.12,0.0542
767.57,0.0542
768.01,0.0542
768.46,0.0542
768.91,0.0542
769.35,0.0542
769.8,0.0543
770.25,0.0543
770.69,0.0543
771.14,0.0543
771.58,0.0542
772.03,0.0543
772.48,0.0542
772.92,0.0543
773.37,0.0542
773.82,0.0542
774.26,0.0543
774.71,0.0542
775.15,0.0543
775.6,0.0542
776.05,0.0543
776.49,0.0542
776.94,0.0542
777.38,0.0542
777.83,0.0542
778.28,0.0542
778.72,0.0542
779.17,0.0543
779.61,0.0542
780.06,0.0543
780.5,0.0542
780.95,0.0543
781.4,0.0543
781.84,0.0543
782.29,0.0543
782.73,0.0543
783.18,0.0543
783.62,0.0544
784.07,0.0543
784.51,0.0543
784.96,0.0543
785.4,0.0543
785.85,0.0543
786.3,0.0543
786.74,0.0544
787.19,0.0542
787.63,0.0543
788.08,0.0543
788.52,0.0543
788.97,0.0543
789.41,0.0543
789.86,0.0542
790.3,0.0542
790.75,0.0542
791.19,0.0542
791.64,0.0542
792.08,0.0541
792.53,0.0541
792.97,0.0541
793.42,0.0541
793.86,0.0542
794.31,0.0541
794.75,0.0541
795.2,0.0541
795.64,0.0541
796.09,0.0541
796.53,0.0541
796.97,0.0541
797.42,0.0541
797.86,0.0541
798.31,0.0541
798.75,0.0541
799.2,0.0542
799.64,0.0542
800.09,0.0541
800.53,0.0541
800.98,0.054
801.42,0.054
801.86,0.0541
802.31,0.054
802.75,0.054
803.2,0.0541
803.64,0.0541
804.09,0.054
804.53,0.0541
804.97,0.054
805.42,0.0541
805.86,0.0541
806.31,0.0541
806.75,0.0541
807.19,0.0541
807.64,0.0541
808.08,0.0542
808.53,0.0541
808.97,0.0541
809.41,0.0541
809.86,0.0541
810.3,0.0541
810.75,0.054
811.19,0.0541
811.63,0.054
812.08,0.0541
812.52,0.054
812.96,0.054
813.41,0.054
813.85,0.054
814.29,0.0539
814.74,0.054
815.18,0.054
815.63,0.0539
816.07,0.054
816.51,0.0539
816.96,0.0539
817.4,0.0539
817.84,0.0539
818.29,0.0539
818.73,0.0538
819.17,0.0538
819.62,0.0538
820.06,0.0538
820.5,0.0538
820.95,0.0538
821.39,0.0539
821.83,0.0538
822.27,0.0538
822.72,0.0537
823.16,0.0538
823.6,0.0537
824.05,0.0537
824.49,0.0537
824.93,0.0537
825.38,0.0537
825.82,0.0537
826.26,0.0537
826.7,0.0537
827.15,0.0537
827.59,0.0537
828.03,0.0537
828.48,0.0537
828.92,0.0537
829.36,0.0536
829.8,0.0537
830.25,0.0537
830.69,0.0537
831.13,0.0537
831.57,0.0536
832.02,0.0537
832.46,0.0537
832.9,0.0537
833.34,0.0536
833.79,0.0536
834.23,0.0536
834.67,0.0536
835.11,0.0536
835.55,0.0536
836.0,0.0535
836.44,0.0535
836.88,0.0535
837.32,0.0534
837.77,0.0534
838.21,0.0534
838.65,0.0533
839.09,0.0533
839.53,0.0533
839.98,0.0533
840.42,0.0533
840.86,0.0533
841.3,0.0532
841.74,0.0533
842.19,0.0532
842.63,0.0532
843.07,0.0532
843.51,0.0532
843.95,0.0532
844.39,0.0532
844.84,0.0531
845.28,0.0532
845.72,0.0532
846.16,0.0532
846.6,0.0532
847.04,0.0532
847.49,0.0532
847.93,0.0532
848.37,0.0532
848.81,0.0532
849.25,0.0532
849.69,0.0532
850.13,0.0532
850.58,0.0532
851.02,0.0532
851.46,0.0532
851.9,0.0532
852.34,0.0531
852.78,0.0531
853.22,0.0531
853.66,0.0532
854.11,0.0531
854.55,0.0531
854.99,0.0531
855.43,0.0531
855.87,0.053
856.31,0.053
856.75,0.053
857.19,0.0529
857.63,0.0529
858.07,0.0529
858.51,0.0529
858.96,0.0529
859.4,0.0528
859.84,0.0528
860.28,0.0528
860.72,0.0528
861.16,0.0527
861.6,0.0528
862.04,0.0527
862.48,0.0527
862.92,0.0527
863.36,0.0526
863.8,0.0526
864.24,0.0526
864.68,0.0526
865.12,0.0526
865.56,0.0526
866.01,0.0526
866.45,0.0525
866.89,0.0525
867.33,0.0525
867.77,0.0525
868.21,0.0524
868.65,0.0525
869.09,0.0525
869.53,0.0524
869.97,0.0524
870.41,0.0524
870.85,0.0524
871.29,0.0524
871.73,0.0523
872.17,0.0523
872.61,0.0523
873.05,0.0523
873.49,0.0523
873.93,0.0523
874.37,0.0523
874.81,0.0523
875.25,0.0523
875.69,0.0522
876.13,0.0522
876.57,0.0523
877.01,0.0522
877.45,0.0522
877.88,0.0522
878.32,0.0522
878.76,0.0522
879.2,0.0522
879.64,0.0523
880.08,0.0522
880.52,0.0522
880.96,0.0522
881.4,0.0522
881.84,0.0522
882.28,0.0522
882.72,0.0522
883.16,0.0521
883.6,0.0522
884.04,0.0521
884.48,0.0521
884.92,0.0521
885.35,0.0521
885.79,0.052
886.23,0.052
886.67,0.052
887.11,0.052
887.55,0.052
887.99,0.052
888.43,0.052
888.87,0.052
889.31,0.0519
889.75,0.052
890.18,0.0519
890.62,0.0519
891.06,0.0519
891.5,0.0519
891.94,0.0519
892.38,0.0519
892.82,0.0518
893.26,0.0518
893.69,0.0518
894.13,0.0518
894.57,0.0518
895.01,0.0518
895.45,0.0518
895.89,0.0517
896.33,0.0517
896.76,0.0517
897.2,0.0517
897.64,0.0517
898.08,0.0517
898.52,0.0516
898.96,0.0517
899.39,0.0516
899.83,0.0516
900.27,0.0516
900.71,0.0515
901.15,0.0515
901.59,0.0515
902.02,0.0515
902.46,0.0515
902.9,0.0515
903.34,0.0514
903.78,0.0514
904.21,0.0514
904.65,0.0514
905.09,0.0514
905.53,0.0514
905.97,0.0514
906.4,0.0514
906.84,0.0514
907.28,0.0513
907.72,0.0513
908.15,0.0513
908.59,0.0513
909.03,0.0512
909.47,0.0513
909.91,0.0513
910.34,0.0513
910.78,0.0512
911.22,0.0512
911.66,0.0512
912.09,0.0512
912.53,0.0512
912.97,0.0512
913.41,0.0512
913.84,0.0511
914.28,0.0511
914.72,0.0511
915.16,0.0511
915.59,0.051
916.03,0.051
916.47,0.051
916.9,0.051
917.34,0.051
917.78,0.051
918.22,0.051
918.65,0.051
919.09,0.051
919.53,0.051
919.96,0.051
920.4,0.051
920.84,0.051
921.28,0.0509
921.71,0.0509
922.15,0.0509
922.59,0.0508
923.02,0.0509
923.46,0.0509
923.9,0.0509
924.33,0.0508
924.77,0.0509
925.21,0.0508
925.64,0.0508
926.08,0.0508
926.52,0.0508
926.95,0.0508
927.39,0.0508
927.83,0.0508
928.26,0.0507
928.7,0.0508
929.14,0.0507
929.57,0.0507
930.01,0.0507
930.44,0.0507
930.88,0.0507
931.32,0.0506
931.75,0.0506
932.19,0.0506
932.63,0.0506
933.06,0.0506
933.5,0.0506
933.94,0.0506
934.37,0.0506
934.81,0.0506
935.24,0.0506
935.68,0.0506
936.12,0.0506
936.55,0.0506
936.99,0.0506
937.42,0.0506
937.86,0.0506
938.3,0.0505
938.73,0.0505
939.17,0.0505
939.6,0.0505
940.04,0.0505
940.47,0.0504
940.91,0.0504
941.35,0.0504
941.78,0.0504
942.22,0.0504
942.65,0.0504
943.09,0.0504
943.52,0.0504
943.96,0.0503
944.4,0.0503
944.83,0.0504
945.27,0.0503
945.7,0.0503
946.14,0.0504
946.57,0.0503
947.01,0.0503
947.44,0.0503
947.88,0.0503
948.31,0.0503
948.75,0.0503
949.18,0.0503
949.62,0.0502
950.05,0.0503
950.49,0.0502
950.92,0.0502
951.36,0.0502
951.79,0.0502
952.23,0.0501
952.67,0.0502
953.1,0.0502
953.53,0.0502
953.97,0.0501
954.4,0.0501
954.84,0.0501
955.27,0.0501
955.71,0.0501
956.14,0.0501
956.58,0.05
957.01,0.05
957.45,0.0501
957.88,0.05
958.32,0.05
958.75,0.0499
959.19,0.05
959.62,0.0499
960.06,0.0499
960.49,0.0499
960.93,0.0498
961.36,0.0498
961.79,0.0498
962.23,0.0498
962.66,0.0497
963.1,0.0497
963.53,0.0497
963.97,0.0497
964.4,0.0496
964.83,0.0497
965.27,0.0496
965.7,0.0496
966.14,0.0496
966.57,0.0496
967.01,0.0496
967.44,0.0496
967.87,0.0496
968.31,0.0496
968.74,0.0496
969.18,0.0495
969.61,0.0495
970.04,0.0496
970.48,0.0495
970.91,0.0495
971.35,0.0495
971.78,0.0495
972.21,0.0495
972.65,0.0495
973.08,0.0494
973.51,0.0494
973.95,0.0494
974.38,0.0494
974.82,0.0494
975.25,0.0494
975.68,0.0494
976.12,0.0493
976.55,0.0493
976.98,0.0493
977.42,0.0493
977.85,0.0493
978.28,0.0493
978.72,0.0493
979.15,0.0493
979.58,0.0493
980.02,0.0492
980.45,0.0492
980.88,0.0492
981.32,0.0492
981.75,0.0492
982.18,0.0492
982.62,0.0492
983.05,0.0493
983.48,0.0492
983.92,0.0492
984.35,0.0491
984.78,0.0491
985.21,0.0491
985.65,0.0491
986.08,0.0491
986.51,0.0491
986.95,0.049
987.38,0.0491
987.81,0.049
988.24,0.0491
988.68,0.049
989.11,0.049
989.54,0.0491
989.98,0.049
990.41,0.049
990.84,0.049
991.27,0.0489
991.71,0.049
992.14,0.049
992.57,0.0489
993.0,0.0489
993.44,0.0489
993.87,0.0489
994.3,0.049
994.73,0.0488
995.17,0.0489
995.6,0.0488
996.03,0.0489
996.46,0.0488
996.9,0.0488
997.33,0.0487
997.76,0.0488
998.19,0.0488
998.62,0.0487
999.06,0.0487
999.49,0.0488
999.92,0.0487
1000.35,0.0487
1000.78,0.0487
1001.22,0.0487
1001.65,0.0487
1002.08,0.0486
1002.51,0.0486
1002.94,0.0486
1003.38,0.0487
1003.81,0.0486
1004.24,0.0486
1004.67,0.0486
1005.1,0.0486
1005.54,0.0486
1005.97,0.0487
1006.4,0.0486
1006.83,0.0486
1007.26,0.0486
1007.69,0.0486
1008.13,0.0486
1008.56,0.0485
1008.99,0.0485
1009.42,0.0485
1009.85,0.0485
1010.28,0.0485
1010.71,0.0484
1011.15,0.0484
1011.58,0.0484
1012.01,0.0484
1012.44,0.0484
1012.87,0.0484
1013.3,0.0484
1013.73,0.0483
1014.17,0.0484
1014.6,0.0484
1015.03,0.0483
1015.46,0.0483
1015.89,0.0483
1016.32,0.0482
1016.75,0.0483
1017.18,0.0483
1017.61,0.0483
1018.04,0.0482
1018.48,0.0483
1018.91,0.0483
1019.34,0.0482
1019.77,0.0482
1020.2,0.0481
1020.63,0.0481
1021.06,0.0482
1021.49,0.0482
1021.92,0.0482
1022.35,0.0481
1022.78,0.0481
1023.21,0.0481
1023.65,0.0481
1024.08,0.0481
1024.51,0.048
1024.94,0.048
1025.37,0.0481
1025.8,0.048
1026.23,0.048
1026.66,0.048
1027.09,0.048
1027.52,0.048
1027.95,0.0479
1028.38,0.048
1028.81,0.048
1029.24,0.0479
1029.67,0.0479
1030.1,0.0479
1030.53,0.0479
1030.96,0.0479
1031.39,0.0479
1031.82,0.0479
1032.25,0.0478
1032.68,0.0478
1033.11,0.0478
1033.54,0.0479
1033.97,0.0478
1034.4,0.0478
1034.83,0.0479
1035.26,0.0479
1035.69,0.0478
1036.12,0.0479
1036.55,0.0478
1036.98,0.0478
1037.41,0.0479
1037.84,0.0478
1038.27,0.0478
1038.7,0.0477
1039.13,0.0478
1039.56,0.0478
1039.99,0.0478
1040.42,0.0477
1040.85,0.0477
1041.28,0.0478
1041.71,0.0477
1042.14,0.0477
1042.57,0.0476
1043.0,0.0476
1043.43,0.0476
1043.85,0.0476
1044.28,0.0475
1044.71,0.0477
1045.14,0.0476
1045.57,0.0477
1046.0,0.0475
1046.43,0.0476
1046.86,0.0476
1047.29,0.0476
1047.72,0.0476
1048.15,0.0475
1048.58,0.0475
1049.01,0.0475
1049.43,0.0475
1049.86,0.0475
1050.29,0.0475
1050.72,0.0475
1051.15,0.0475
1051.58,0.0475
1052.01,0.0475
1052.44,0.0475
1052.87,0.0474
1053.29,0.0474
1053.72,0.0474
1054.15,0.0474
1054.58,0.0475
1055.01,0.0474
1055.44,0.0473
1055.87,0.0475
1056.3,0.0474
1056.72,0.0474
1057.15,0.0474
1057.58,0.0473
1058.01,0.0473
1058.44,0.0474
1058.87,0.0474
1059.3,0.0473
1059.72,0.0473
1060.15,0.0474
1060.58,0.0473
1061.01,0.0473
1061.44,0.0473
1061.87,0.0473
1062.29,0.0473
1062.72,0.0473
1063.15,0.0473
1063.58,0.0473
1064.01,0.0471
1064.43,0.0472
1064.86,0.0472
1065.29,0.0472
1065.72,0.0472
1066.15,0.0472
1066.57,0.0472
1067.0,0.0471
1067.43,0.0472
1067.86,0.0472
1068.29,0.0471
1068.71,0.047
1069.14,0.0472
1069.57,0.0472
1070.0,0.0471
1070.43,0.0471
1070.85,0.0472
1071.28,0.0471
1071.71,0.0472
1072.14,0.0471
1072.56,0.0472
1072.99,0.0472
1073.42,0.0471
1073.85,0.0471
1074.27,0.0471
1074.7,0.047
1075.13,0.0472
1075.56,0.0469
1075.98,0.0471
1076.41,0.0471
1076.84,0.0472
1077.27,0.0471
1077.69,0.0471
1078.12,0.0471
1078.55,0.047
1078.97,0.047
1079.4,0.0472
1079.83,0.0471
1080.26,0.047
1080.68,0.047
1081.11,0.0469
1081.54,0.047
1081.96,0.0471
1082.39,0.0471
1082.82,0.0471
1083.25,0.047
1083.67,0.0471
1084.1,0.047
1084.53,0.047
1084.95,0.0468
1085.38,0.0471
1085.81,0.0469
1086.23,0.0469
1086.66,0.0469
1087.09,0.0469
1087.51,0.0469
1087.94,0.047
1088.37,0.0468
1088.79,0.0469
1089.22,0.0469
1089.65,0.0471
1090.07,0.0471
1090.5,0.047
1090.93,0.047
1091.35,0.047
1091.78,0.0469
1092.21,0.0469
1092.63,0.0469
1093.06,0.047
1093.48,0.0468
1093.91,0.047
1094.34,0.0468
1094.76,0.0471
1095.19,0.0469
1095.62,0.0467
1096.04,0.0469
1096.47,0.0469
1096.89,0.0469
1097.32,0.0469
1097.75,0.0468
1098.17,0.0471
1098.6,0.0467
1099.02,0.0467
1099.45,0.0469
1099.88,0.0467
1100.3,0.0468
1100.73,0.0469
1101.15,0.0467
1101.58,0.047
1102.01,0.0466
1102.43,0.0468
1102.86,0.0469
1103.28,0.0468
1103.71,0.0468
1104.13,0.0466
1104.56,0.0468
1104.99,0.0471
1105.41,0.0468
1105.84,0.0468
1106.26,0.0468
1106.69,0.0467
1107.11,0.0468
1107.54,0.0467
1107.96,0.0466
1108.39,0.0469
1108.81,0.0466
1109.24,0.0467
1109.67,0.0467
1110.09,0.0466
1110.52,0.0467
1110.94,0.0467
1111.37,0.0467
1111.79,0.0465
1112.22,0.0467
1112.64,0.0466
1113.07,0.0466
1113.49,0.0466
1113.92,0.0465
1114.34,0.0464
1114.77,0.0466
1115.19,0.0467
1115.62,0.0468
1116.04,0.0466
1116.47,0.0461
1116.89,0.0464
1117.32,0.0464
1117.74,0.0466
1118.17,0.0467
1118.59,0.0464
1119.02,0.0468
1119.44,0.0466
1119.87,0.0464
1120.29,0.0465
1120.71,0.0464
1121.14,0.0466
1121.56,0.0465
1121.99,0.0466
1122.41,0.0466
1122.84,0.0467
1123.26,0.0469
1123.69,0.0466
1124.11,0.0466
1124.54,0.0468
1124.96,0.0468
1125.38,0.0469
1125.81,0.0467
1126.23,0.0463
1126.66,0.0466
1127.08,0.0471
1127.51,0.0465
1127.93,0.0464
1128.35,0.0465
1128.78,0.0464
1129.2,0.0472
1129.63,0.0464
1130.05,0.0462
1130.47,0.0466
1130.9,0.0472
1131.32,0.0459
1131.75,0.0502
1132.17,0.0469
1132.59,0.0503
